# participant=P002 | sex=male | age=22 | weight_kg=52 | height_cm=171
# exercise=calf_raise | trial_no=2 | label=calf_raise | session=2026-06-21T18:45:03.765Z | tz=Asia/Calcutta
datetime_local,muscle1_filtered_mV,muscle2_filtered_mV,muscle3_filtered_mV,muscle4_filtered_mV
2026-06-22 00:15:03.720,,,,559.68
2026-06-22 00:15:03.721,,,,696.39
2026-06-22 00:15:03.722,,,,374.59
2026-06-22 00:15:03.723,,,,416.25
2026-06-22 00:15:03.724,,,,233.54
2026-06-22 00:15:03.725,,,,208.48
2026-06-22 00:15:03.726,,,,121.63
2026-06-22 00:15:03.727,,,,67.39
2026-06-22 00:15:03.728,,,,33.16
2026-06-22 00:15:03.729,,,,-24.62
2026-06-22 00:15:03.730,,,,-32.07
2026-06-22 00:15:03.731,,,,-80.24
2026-06-22 00:15:03.732,,,,-81.45
2026-06-22 00:15:03.733,,,,-117.15
2026-06-22 00:15:03.734,,,,-113.56
2026-06-22 00:15:03.735,,,,-136.76
2026-06-22 00:15:03.736,,,,-140.22
2026-06-22 00:15:03.737,,,,-157.23
2026-06-22 00:15:03.738,,,,-161
2026-06-22 00:15:03.727,553.24,,,-166.15
2026-06-22 00:15:03.728,690.79,,,-162.75
2026-06-22 00:15:03.729,374.56,,,-160.87
2026-06-22 00:15:03.730,414.96,,,-157.19
2026-06-22 00:15:03.731,231.77,,,-149.24
2026-06-22 00:15:03.732,207.07,,,-142.76
2026-06-22 00:15:03.733,121.93,,,-128.75
2026-06-22 00:15:03.734,68.81,,,-115.18
2026-06-22 00:15:03.735,35.51,,,-98
2026-06-22 00:15:03.736,-22.21,,,-83.83
2026-06-22 00:15:03.737,-32.54,,,-71.85
2026-06-22 00:15:03.738,-77.55,,,-59.58
2026-06-22 00:15:03.739,-77.71,,,-47.71
2026-06-22 00:15:03.740,-117.67,460.8,,-36.81
2026-06-22 00:15:03.741,-118.19,576.56,,-26.7
2026-06-22 00:15:03.742,-142.87,308.41,,-20.67
2026-06-22 00:15:03.743,-143.5,340.94,,-20.25
2026-06-22 00:15:03.744,-156.02,194.18,542.71,-20.3
2026-06-22 00:15:03.745,-154.79,173.41,680.1,-17.63
2026-06-22 00:15:03.746,-162.06,101.24,368.77,-17.77
2026-06-22 00:15:03.747,-164.99,57.74,406.44,-19.69
2026-06-22 00:15:03.748,-160.71,29.05,229.47,-22.21
2026-06-22 00:15:03.749,-155.78,-18.17,204.61,-20.59
2026-06-22 00:15:03.750,-147.45,-26.02,118.11,-18.15
2026-06-22 00:15:03.751,-139.67,-66.65,65.59,-20.69
2026-06-22 00:15:03.752,-128.71,-67.21,31.93,-18.01
2026-06-22 00:15:03.753,-115.93,-97,-22.91,-12.03
2026-06-22 00:15:03.754,-98.95,-95.63,-30.8,-3.85
2026-06-22 00:15:03.755,-86.06,-116.4,-78.04,4.29
2026-06-22 00:15:03.756,-71.29,-117.17,-77.05,9.36
2026-06-22 00:15:03.757,-54.35,-129.63,-112.76,13.24
2026-06-22 00:15:03.758,-45.9,-132.22,-114.08,15.14
2026-06-22 00:15:03.759,-36.52,-135.88,-137.79,19.13
2026-06-22 00:15:03.760,-26.15,-135.3,-137.92,22.63
2026-06-22 00:15:03.761,-21.91,-134.03,-153.07,23.76
2026-06-22 00:15:03.762,-18.97,-130.29,-155.17,23.9
2026-06-22 00:15:03.763,-17.74,-123.49,-160.55,19.02
2026-06-22 00:15:03.764,-16.88,-115.92,-160.27,14.18
2026-06-22 00:15:03.765,-19.43,-105.99,-157.93,9.06
2026-06-22 00:15:03.766,-20.16,-96.04,-154.1,4.24
2026-06-22 00:15:03.767,-20.79,-81.85,-146.69,-1.68
2026-06-22 00:15:03.768,-23.14,-69.87,-137.97,-7.71
2026-06-22 00:15:03.769,-22.36,-57.54,-123.71,-9.09
2026-06-22 00:15:03.770,-18.21,-46.67,-112.22,-11.86
2026-06-22 00:15:03.771,-15.05,-37.54,-97.78,-11.76
2026-06-22 00:15:03.772,-11.54,-29.45,-82.82,-9.15
2026-06-22 00:15:03.773,-4.02,-22.54,-69.28,-7.71
2026-06-22 00:15:03.774,1.51,-17.95,-56.43,-4.34
2026-06-22 00:15:03.775,7.34,-15.76,-43.25,-0.23
2026-06-22 00:15:03.776,16.6,-15.97,-34.62,3.11
2026-06-22 00:15:03.783,17.77,-15.69,-27.99,7.61
2026-06-22 00:15:03.784,17.23,-15.49,-23.04,10.85
2026-06-22 00:15:03.785,21.25,-16.84,-19.97,14.62
2026-06-22 00:15:03.786,22.85,-17.58,-15.53,17.04
2026-06-22 00:15:03.787,20.81,-18.05,-12.57,16.49
2026-06-22 00:15:03.788,17.74,-17.28,-16.62,15.11
2026-06-22 00:15:03.789,14.4,-15.73,-21.31,11.75
2026-06-22 00:15:03.790,10.99,-13.58,-22.95,6.96
2026-06-22 00:15:03.791,5.82,-8.95,-24.4,2.95
2026-06-22 00:15:03.792,-1.18,-4.39,-21.6,-0.26
2026-06-22 00:15:03.793,-7.96,0.19,-16.31,-5.16
2026-06-22 00:15:03.794,-11.81,5.89,-12.16,-10.14
2026-06-22 00:15:03.795,-9.41,10.31,-9.34,-12.16
2026-06-22 00:15:03.796,-10.37,14.18,-6.1,-15.58
2026-06-22 00:15:03.797,-10.77,17.46,-0.04,-17.1
2026-06-22 00:15:03.798,-8.62,19.07,6.04,-12.87
2026-06-22 00:15:03.799,-4.83,20.27,10.62,-11.12
2026-06-22 00:15:03.800,-0.57,19.01,15.03,-9.35
2026-06-22 00:15:03.801,4.09,15.83,20.35,-3.52
2026-06-22 00:15:03.802,7.36,13.06,23.91,1.88
2026-06-22 00:15:03.803,11.4,8.75,23.12,4.34
2026-06-22 00:15:03.804,16.59,3.56,21.54,7.17
2026-06-22 00:15:03.805,15.82,-1.14,19.02,10.62
2026-06-22 00:15:03.806,17.18,-5.57,14.84,14.47
2026-06-22 00:15:03.807,14.81,-8.06,9.92,16.26
2026-06-22 00:15:03.808,10.64,-9.79,4.81,15.63
2026-06-22 00:15:03.809,8.97,-9.63,-0.74,11.19
2026-06-22 00:15:03.810,3.14,-9.03,-6.44,4.47
2026-06-22 00:15:03.811,-1.41,-8.54,-8.96,3.55
2026-06-22 00:15:03.812,-6.26,-4.2,-10.74,0.57
2026-06-22 00:15:03.813,-10.34,0.15,-11.92,-5.58
2026-06-22 00:15:03.814,-14.48,3.37,-10.84,-8.24
2026-06-22 00:15:03.815,-15.84,5.88,-8.98,-13.73
2026-06-22 00:15:03.816,-12.68,8.01,-5.38,-16.36
2026-06-22 00:15:03.817,-14.57,12.15,-1.63,-15.28
2026-06-22 00:15:03.818,-11.67,13.97,3.17,-14.62
2026-06-22 00:15:03.819,-7.99,13.53,8.69,-10.93
2026-06-22 00:15:03.820,-4.42,12.75,11.97,-5.86
2026-06-22 00:15:03.821,1.26,10.03,13.68,-0.44
2026-06-22 00:15:03.822,4.08,7.26,15.39,2.29
2026-06-22 00:15:03.823,9.38,2.92,16.19,5.52
2026-06-22 00:15:03.824,10.82,-2.14,14.87,9.22
2026-06-22 00:15:03.825,13.37,-5.05,11.5,12.55
2026-06-22 00:15:03.826,15.23,-7.9,7.62,14.6
2026-06-22 00:15:03.827,15.41,-10.94,4.22,13.47
2026-06-22 00:15:03.828,11.95,-11.98,-0.04,11.24
2026-06-22 00:15:03.829,6.64,-12.75,-5.86,8.49
2026-06-22 00:15:03.830,4.39,-11.3,-10.23,5.69
2026-06-22 00:15:03.831,-0.26,-8.21,-12.96,3.87
2026-06-22 00:15:03.832,-3.78,-6.4,-15.12,-1.08
2026-06-22 00:15:03.827,-7.57,-3.19,-15.24,-6.45
2026-06-22 00:15:03.828,-14.55,0.75,-14.72,-9.23
2026-06-22 00:15:03.829,-17.5,4.46,-11.98,-12.55
2026-06-22 00:15:03.830,-13.1,8.3,-6.88,-13.45
2026-06-22 00:15:03.831,-11.11,9.32,-1.42,-13.86
2026-06-22 00:15:03.832,-11.65,10.58,3.12,-12.34
2026-06-22 00:15:03.833,-7.64,11.74,6.41,-9.65
2026-06-22 00:15:03.834,-3.16,10.84,8.01,-6.27
2026-06-22 00:15:03.835,0.33,8.97,10.66,-1.75
2026-06-22 00:15:03.836,4.41,6.13,13.53,2
2026-06-22 00:15:03.837,5.95,3,13.52,5.77
2026-06-22 00:15:03.838,11.62,-0.86,11.68,9.04
2026-06-22 00:15:03.839,15.8,-3.77,9.49,12.39
2026-06-22 00:15:03.840,12.05,-7.45,6.61,11.48
2026-06-22 00:15:03.841,9.53,-11.15,2.33,11.13
2026-06-22 00:15:03.842,10.77,-12.67,-1.13,14.71
2026-06-22 00:15:03.843,7.91,-11.74,-4.39,10.42
2026-06-22 00:15:03.844,2.2,-10.42,-8.55,4.94
2026-06-22 00:15:03.845,-1.21,-9.05,-12.17,1.23
2026-06-22 00:15:03.846,-2.35,-5.72,-13.61,-3.07
2026-06-22 00:15:03.847,-6.74,-1.84,-13.93,-2.97
2026-06-22 00:15:03.848,-11.39,1.17,-12.26,-5.42
2026-06-22 00:15:03.849,-12.07,3.79,-9.02,-8.92
2026-06-22 00:15:03.850,-13.32,5.94,-7.32,-13.11
2026-06-22 00:15:03.851,-11.42,9.38,-3.39,-14
2026-06-22 00:15:03.852,-9.34,10.93,2.55,-10.98
2026-06-22 00:15:03.853,-7.81,10.68,4.75,-10.07
2026-06-22 00:15:03.854,-0.87,10.19,7.53,-5.34
2026-06-22 00:15:03.855,3.71,8.71,10.72,0.05
2026-06-22 00:15:03.856,2.04,6.55,11.81,0.95
2026-06-22 00:15:03.857,6.85,2.08,12.51,4.06
2026-06-22 00:15:03.858,11.11,-0.59,11.33,6.7
2026-06-22 00:15:03.859,10.94,-3.83,9.5,7.08
2026-06-22 00:15:03.860,12.72,-8.14,6.39,8.99
2026-06-22 00:15:03.861,9.01,-9.49,2.88,10.09
2026-06-22 00:15:03.862,6.44,-10.05,-0.2,10.44
2026-06-22 00:15:03.863,6.64,-10.75,-4.91,10.41
2026-06-22 00:15:03.864,2.51,-9.72,-7.9,8.83
2026-06-22 00:15:03.865,0.97,-8.1,-8.45,3.63
2026-06-22 00:15:03.866,-2.57,-5.77,-11.11,-2.99
2026-06-22 00:15:03.867,-8.87,-1.73,-12.58,-5.41
2026-06-22 00:15:03.868,-10.8,1.77,-10.71,-5.08
2026-06-22 00:15:03.869,-9.77,3.83,-9.8,-7.09
2026-06-22 00:15:03.870,-11.3,6.72,-5.92,-11.03
2026-06-22 00:15:03.871,-9.32,8.48,-0.38,-11.52
2026-06-22 00:15:03.872,-6.91,9.31,0.24,-8.39
2026-06-22 00:15:03.873,-5.52,9.81,2.35,-8.9
2026-06-22 00:15:03.874,1.25,8.15,7.52,-6.67
2026-06-22 00:15:03.875,2.29,7.52,9.59,-0.23
2026-06-22 00:15:03.876,3.47,4.18,10.5,0
2026-06-22 00:15:03.883,6.17,1.82,11.25,1.52
2026-06-22 00:15:03.884,7.11,-0.07,9.99,8.7
2026-06-22 00:15:03.885,8.1,-3.15,8.51,10.91
2026-06-22 00:15:03.886,9.87,-6.08,5.39,8.78
2026-06-22 00:15:03.887,10.83,-6.75,2.44,7.96
2026-06-22 00:15:03.888,7.07,-8.66,0.22,8.26
2026-06-22 00:15:03.889,5.32,-8.83,-3.97,7.46
2026-06-22 00:15:03.890,2.19,-6.59,-7.63,5.01
2026-06-22 00:15:03.891,-3.03,-6.81,-10.43,1.67
2026-06-22 00:15:03.892,-5.12,-3.98,-11.06,-0.25
2026-06-22 00:15:03.893,-9.12,-2.45,-9.14,-2.46
2026-06-22 00:15:03.894,-8.76,4.71,-8.96,-6.93
2026-06-22 00:15:03.895,-8.26,2.42,-8.15,-7.88
2026-06-22 00:15:03.896,-11.2,-5.22,-4.68,-10.73
2026-06-22 00:15:03.897,-6.38,6.13,-2.32,-11.37
2026-06-22 00:15:03.898,-4.25,11.11,0.24,-9.31
2026-06-22 00:15:03.899,-7.43,7.93,4.61,-8.21
2026-06-22 00:15:03.900,-2.08,9.8,7.96,-3.98
2026-06-22 00:15:03.901,4.48,6.64,8.42,-2.85
2026-06-22 00:15:03.902,4.3,5.87,9.95,1.52
2026-06-22 00:15:03.903,5.68,3.06,10.22,5.42
2026-06-22 00:15:03.904,8.81,-0.02,8.86,6.08
2026-06-22 00:15:03.905,11.08,-1.54,8.02,11.22
2026-06-22 00:15:03.906,9.02,-5.24,5.53,11.03
2026-06-22 00:15:03.907,6.27,-7.31,2.86,9.07
2026-06-22 00:15:03.908,6.16,-7.96,-1.58,8.36
2026-06-22 00:15:03.909,6.98,-8.83,-5.69,5.96
2026-06-22 00:15:03.910,4.71,-8.82,-6.72,4.98
2026-06-22 00:15:03.911,-0.8,-5.52,-8.23,3.36
2026-06-22 00:15:03.912,-3.74,-5.3,-9.98,2.39
2026-06-22 00:15:03.913,-9.19,-2.75,-10,-3.41
2026-06-22 00:15:03.914,-10.91,1.2,-9.52,-6.84
2026-06-22 00:15:03.915,-9.44,3.9,-7.95,-8.97
2026-06-22 00:15:03.916,-10.27,5.78,-5.56,-12.48
2026-06-22 00:15:03.917,-8.09,6.78,-3.03,-10.48
2026-06-22 00:15:03.918,-8.13,8.29,2.04,-8.25
2026-06-22 00:15:03.919,-7.08,8.42,5.97,-6.88
2026-06-22 00:15:03.920,-1.82,7.8,6.05,-4.33
2026-06-22 00:15:03.921,-0.31,6.14,8.28,-2.57
2026-06-22 00:15:03.922,5.73,3.63,10.62,-0.28
2026-06-22 00:15:03.923,8.28,1.68,9.15,3.05
2026-06-22 00:15:03.924,6.12,-0.56,8.52,6.77
2026-06-22 00:15:03.925,9.09,-3.28,7.02,7.84
2026-06-22 00:15:03.926,9.5,-5.22,4.67,7.8
2026-06-22 00:15:03.927,7.75,-6.92,2.12,7.93
2026-06-22 00:15:03.928,9.65,-7.81,-1.18,6.39
2026-06-22 00:15:03.929,7.96,-7.86,-3.58,5.49
2026-06-22 00:15:03.930,3.38,-7.44,-5.19,5.07
2026-06-22 00:15:03.931,-0.05,-6.57,-7.97,4.62
2026-06-22 00:15:03.932,-0.76,-5.13,-10.02,0.34
2026-06-22 00:15:03.928,-4.41,-1.46,-9.35,-3.2
2026-06-22 00:15:03.929,-12.5,1.02,-9.91,-4.14
2026-06-22 00:15:03.930,-10.17,2.64,-7.08,-7.48
2026-06-22 00:15:03.931,-8.14,5.41,-2.54,-6.99
2026-06-22 00:15:03.932,-9.49,6.9,-1.53,-5.93
2026-06-22 00:15:03.933,-8.3,7.26,-0.99,-8.42
2026-06-22 00:15:03.934,-5.69,7.76,3.1,-6.43
2026-06-22 00:15:03.935,-2.55,7.13,6.83,-4.07
2026-06-22 00:15:03.936,-0.92,6.61,7.14,-2.73
2026-06-22 00:15:03.937,-0.04,4.36,7.88,0.38
2026-06-22 00:15:03.938,5.55,1.85,8.95,0.63
2026-06-22 00:15:03.939,9.75,0.22,8.03,1.6
2026-06-22 00:15:03.940,9.69,-2.71,7.62,6.74
2026-06-22 00:15:03.941,9.55,-5.14,5.66,9.58
2026-06-22 00:15:03.942,7.35,-7.76,1.51,7.88
2026-06-22 00:15:03.943,6.11,-8.81,-0.1,7.69
2026-06-22 00:15:03.944,5.55,-7.12,-2.14,7.56
2026-06-22 00:15:03.945,3.95,-4.99,-4.89,1.45
2026-06-22 00:15:03.946,0.23,-6.11,-6.75,-0.23
2026-06-22 00:15:03.947,-3.26,-5.37,-7.77,-0.08
2026-06-22 00:15:03.948,-4.23,-1.42,-8.46,-2.29
2026-06-22 00:15:03.949,-4.74,1.94,-7.58,-2.53
2026-06-22 00:15:03.950,-7.9,3.18,-6.14,-6.81
2026-06-22 00:15:03.951,-8.31,3.91,-4.46,-9.03
2026-06-22 00:15:03.952,-7.85,5.08,-1.4,-5.59
2026-06-22 00:15:03.953,-8.8,6.42,3.66,-7.36
2026-06-22 00:15:03.954,-7.52,7,2.17,-4.88
2026-06-22 00:15:03.955,-1.15,6.38,1.4,0.79
2026-06-22 00:15:03.956,2.65,4.52,7.71,-0.47
2026-06-22 00:15:03.957,0.8,3.29,7.84,3.02
2026-06-22 00:15:03.958,4.48,2.32,6.92,5.95
2026-06-22 00:15:03.959,8.17,-1.01,4.49,0.89
2026-06-22 00:15:03.960,7.39,-1.96,2.81,0.38
2026-06-22 00:15:03.961,6.04,-2.57,6.54,3.53
2026-06-22 00:15:03.962,7.24,-4.43,4.47,4.47
2026-06-22 00:15:03.963,7.03,-6.16,-1.42,5.67
2026-06-22 00:15:03.964,4.49,-7.18,-2.82,6.15
2026-06-22 00:15:03.965,1.04,-7.12,-4.46,4.27
2026-06-22 00:15:03.966,1.43,-5.02,-5.66,2.43
2026-06-22 00:15:03.967,-2.4,-3.42,-7.2,2.28
2026-06-22 00:15:03.968,-6.78,-1.73,-8.38,-2.2
2026-06-22 00:15:03.969,-3.52,0.67,-8.72,-3.94
2026-06-22 00:15:03.970,-5.17,2.07,-8.15,-2.67
2026-06-22 00:15:03.971,-8.45,4.52,-2.62,-2.85
2026-06-22 00:15:03.972,-8.07,5.67,0.77,-4.54
2026-06-22 00:15:03.973,-4.31,5.02,1.05,-8.3
2026-06-22 00:15:03.974,-1.49,5.79,3.41,-7.44
2026-06-22 00:15:03.975,-2.49,6.11,5.88,-6.25
2026-06-22 00:15:03.976,-0.44,4.46,7.15,-4.32
2026-06-22 00:15:03.977,5.11,3.41,6.39,-3.17
2026-06-22 00:15:03.987,,1.32,5.54,-0.21
2026-06-22 00:15:03.984,4.43,-0.39,5.78,5.38
2026-06-22 00:15:03.985,3.65,-2.31,5.07,6.13
2026-06-22 00:15:03.986,4.07,-3.88,4.44,7.27
2026-06-22 00:15:03.987,4.41,-4.95,0.56,8.94
2026-06-22 00:15:03.988,6.66,-5.78,-2.87,7.01
2026-06-22 00:15:03.989,5.39,-5.51,-1.51,7.02
2026-06-22 00:15:03.990,1.8,-5.43,-2.8,6.97
2026-06-22 00:15:03.991,1.32,-3.68,-5.66,4.3
2026-06-22 00:15:03.992,0.74,-3.04,-7.22,1.91
2026-06-22 00:15:03.993,-0.6,-1.76,-7.61,-2.71
2026-06-22 00:15:03.994,-6.07,0.58,-6.41,-6.16
2026-06-22 00:15:03.995,-6.75,2.81,-6.16,-5.82
2026-06-22 00:15:03.996,-4.13,,-2.92,-7.56
2026-06-22 00:15:03.997,-10.35,4.16,-0.27,-6.14
2026-06-22 00:15:03.998,-7.73,2.8,1.08,-3.84
2026-06-22 00:15:03.999,-2.45,4.08,2.64,-6.4
2026-06-22 00:15:04.000,-1.65,6.38,,-6.53
2026-06-22 00:15:04.001,-0.53,4.92,0.36,-4.4
2026-06-22 00:15:04.002,2.24,4.66,4.42,-1.42
2026-06-22 00:15:04.003,5.52,3.4,9.43,-0.68
2026-06-22 00:15:04.004,4.76,1.54,6.39,3.03
2026-06-22 00:15:04.005,5.49,0.72,5.93,5.68
2026-06-22 00:15:04.006,5.22,-2.83,5.28,6.98
2026-06-22 00:15:04.007,4.5,-4.88,3.5,9.41
2026-06-22 00:15:04.008,6.57,-4.69,2.01,6.89
2026-06-22 00:15:04.009,4.77,-4.36,-0.26,5.03
2026-06-22 00:15:04.010,2.1,-5.4,-2.01,4.57
2026-06-22 00:15:04.011,0.54,-5.01,-3.87,3.25
2026-06-22 00:15:04.012,-0.09,-3.99,-5.2,1.14
2026-06-22 00:15:04.013,-4.5,-3.01,-5.94,-0.45
2026-06-22 00:15:04.014,-7.32,-0.93,-6.39,
2026-06-22 00:15:04.015,-3.63,0.71,-5.67,-2.04
2026-06-22 00:15:04.016,-6.11,2.63,-4.35,-6.59
2026-06-22 00:15:04.017,-6.77,3.38,-3.28,-8.37
2026-06-22 00:15:04.018,-4.24,4.51,-1.97,-7.13
2026-06-22 00:15:04.019,-5.13,5.6,0.22,-7.93
2026-06-22 00:15:04.020,-2.35,5.19,1.84,-6.37
2026-06-22 00:15:04.021,-1.24,4.53,3.43,-4.97
2026-06-22 00:15:04.022,-0.59,2.77,5.64,-2.59
2026-06-22 00:15:04.023,1.66,1.88,5.7,0.71
2026-06-22 00:15:04.024,3.93,1.92,5.95,2.95
2026-06-22 00:15:04.025,7.32,-0.15,7.3,4.87
2026-06-22 00:15:04.026,4.88,-2.4,4.49,5.02
2026-06-22 00:15:04.027,4.93,-3.66,1.36,4.65
2026-06-22 00:15:04.028,8.39,-4.16,1.09,4.4
2026-06-22 00:15:04.029,5.87,-4.37,-1.91,5.61
2026-06-22 00:15:04.030,3.77,-4.8,-2.82,4.92
2026-06-22 00:15:04.031,2.45,-5.77,-2.63,2.86
2026-06-22 00:15:04.032,0.02,-4.05,-4.49,1.77
2026-06-22 00:15:04.033,-0.62,-2.42,-5.58,-0.65
2026-06-22 00:15:04.028,-2.62,-2.67,-4.39,-1.39
2026-06-22 00:15:04.029,-7.78,0.45,-5.42,-5.36
2026-06-22 00:15:04.030,-7.57,1.97,-6.81,-7.5
2026-06-22 00:15:04.031,-5.39,3.36,-6.26,-3.15
2026-06-22 00:15:04.032,-6.66,4.92,-6.08,-4.36
2026-06-22 00:15:04.033,-6.3,5.03,2.57,-0.56
2026-06-22 00:15:04.034,-4.39,4.77,12.2,1.26
2026-06-22 00:15:04.035,-0.69,4.86,10.28,-1.29
2026-06-22 00:15:04.036,-1.65,6.19,7.39,-0.98
2026-06-22 00:15:04.037,0.77,2.84,4.2,-2.02
2026-06-22 00:15:04.038,5.36,0.16,2.91,-0.47
2026-06-22 00:15:04.039,4.96,0.74,4.2,1.62
2026-06-22 00:15:04.040,7.56,-0.77,1.86,1.82
2026-06-22 00:15:04.041,6.59,-2.44,1.67,2.27
2026-06-22 00:15:04.042,4.24,-4.38,1.09,3.97
2026-06-22 00:15:04.043,4.34,-6.83,-1.96,4.13
2026-06-22 00:15:04.044,3,-7.49,-5.33,3.27
2026-06-22 00:15:04.045,1.53,-6.28,-3.82,2.74
2026-06-22 00:15:04.046,-0.25,-4.01,-1.69,1.61
2026-06-22 00:15:04.047,-1.47,-1.75,-5.35,0.65
2026-06-22 00:15:04.048,-3.57,-0.2,-5.66,-1.61
2026-06-22 00:15:04.049,-1.46,1.03,-5.29,-3.41
2026-06-22 00:15:04.050,-0.93,2.43,-5.11,-4.26
2026-06-22 00:15:04.051,-6.14,3.51,-3.32,-6.27
2026-06-22 00:15:04.052,-5.79,4.51,-1.6,-5.14
2026-06-22 00:15:04.053,-5.05,4.74,-0.17,-4.38
2026-06-22 00:15:04.054,-2.84,4.42,-0.26,-1.43
2026-06-22 00:15:04.055,-2.64,4.28,3.04,2.42
2026-06-22 00:15:04.056,-0.5,3.43,4.84,3.9
2026-06-22 00:15:04.057,2.7,2.34,6.72,7.57
2026-06-22 00:15:04.058,1.22,0.28,9.31,4.85
2026-06-22 00:15:04.059,3.88,-0.33,5.69,-0.87
2026-06-22 00:15:04.060,4.25,-0.93,2.57,0.62
2026-06-22 00:15:04.061,3.78,-2.82,1.65,1.94
2026-06-22 00:15:04.062,6.43,-3.82,0.14,2.21
2026-06-22 00:15:04.063,4.64,-3.47,-1.15,2.65
2026-06-22 00:15:04.064,0.81,-3.68,-2.06,-0.08
2026-06-22 00:15:04.065,-0.18,-4.97,-0.57,0.86
2026-06-22 00:15:04.066,-0.4,-4.23,-3.92,2.17
2026-06-22 00:15:04.067,-1.69,-1.91,-6.48,-0.5
2026-06-22 00:15:04.068,-1.86,-0.37,-6.75,-0.8
2026-06-22 00:15:04.069,-1.88,0.39,-4.95,-2.94
2026-06-22 00:15:04.070,-4.4,2.24,-0.13,-3.04
2026-06-22 00:15:04.071,-3.45,2.5,-2.83,-1.86
2026-06-22 00:15:04.072,-4.46,3.48,-2.88,-4.97
2026-06-22 00:15:04.073,-3.67,3.61,1.98,-4.21
2026-06-22 00:15:04.074,-0.42,2.39,2.84,-4.12
2026-06-22 00:15:04.075,-1.02,4.35,3.91,-2.29
2026-06-22 00:15:04.076,-0.3,3.34,4.47,-0.46
2026-06-22 00:15:04.077,3.61,0.76,3.51,-1.37
2026-06-22 00:15:04.083,1.81,0.73,3.78,3.39
2026-06-22 00:15:04.084,-0.26,0.24,3.85,3.43
2026-06-22 00:15:04.085,5.96,-0.33,2.84,2.42
2026-06-22 00:15:04.086,4.99,-2.77,0.88,5.38
2026-06-22 00:15:04.087,1.42,-3.65,0.52,5.53
2026-06-22 00:15:04.088,2.89,-3.36,-1.72,3.59
2026-06-22 00:15:04.089,0.24,-3.94,-2.13,2.85
2026-06-22 00:15:04.090,-0.03,-2.37,-3.68,2.94
2026-06-22 00:15:04.091,0.96,-2.89,-3.31,0.19
2026-06-22 00:15:04.092,-4.34,-2.25,-2.06,-1.25
2026-06-22 00:15:04.093,-4.24,-0.77,-4.95,-1.56
2026-06-22 00:15:04.094,0.66,0.19,-2.1,-1.81
2026-06-22 00:15:04.095,-1.1,1.79,-1.34,-3.51
2026-06-22 00:15:04.096,-4.89,1.48,-2.55,-4.41
2026-06-22 00:15:04.097,-3.6,2.32,0.72,-2.13
2026-06-22 00:15:04.098,-2.53,4.12,0.73,-5.85
2026-06-22 00:15:04.099,-1.8,3.91,0.62,-6.44
2026-06-22 00:15:04.100,0.24,2.25,2.84,-2.93
2026-06-22 00:15:04.101,0.73,2.38,3.26,-1.41
2026-06-22 00:15:04.102,1.04,2.32,1.24,-0.59
2026-06-22 00:15:04.103,1.37,0.42,2.24,0.69
2026-06-22 00:15:04.104,3.68,-0.48,4.96,4.35
2026-06-22 00:15:04.105,6.58,-1.31,3.31,4.35
2026-06-22 00:15:04.106,4.03,-1.35,3.37,4.82
2026-06-22 00:15:04.107,2.19,-1.75,1.83,4.97
2026-06-22 00:15:04.108,3.61,-3.75,-0.56,3.12
2026-06-22 00:15:04.109,-0.65,-3.17,-2.68,4.38
2026-06-22 00:15:04.110,-0.74,-3.52,-3.71,2.08
2026-06-22 00:15:04.111,1.23,-2.96,-3.45,-1.07
2026-06-22 00:15:04.112,-2.44,-1.42,-4.54,-0.66
2026-06-22 00:15:04.113,-2.75,-1.81,-4.31,-0.6
2026-06-22 00:15:04.114,-4.89,-0.15,-3.33,-2.51
2026-06-22 00:15:04.115,-5.97,1.01,-1.84,-4.42
2026-06-22 00:15:04.116,-3.64,1.81,-3.24,-2.56
2026-06-22 00:15:04.117,-5.57,3.27,0.56,-4.08
2026-06-22 00:15:04.118,-5.26,4.44,5.04,-3.36
2026-06-22 00:15:04.119,-1.66,3.62,1.49,0.14
2026-06-22 00:15:04.120,2.57,2.6,1.85,-0.72
2026-06-22 00:15:04.121,2.2,2.74,2.87,-0.45
2026-06-22 00:15:04.122,0.36,1.86,4.72,-0.11
2026-06-22 00:15:04.123,4.47,1.07,6.93,0.26
2026-06-22 00:15:04.124,3.78,-0.41,4.4,-0.65
2026-06-22 00:15:04.125,1.27,-2.45,1.83,-1.53
2026-06-22 00:15:04.126,3.63,-2.45,-0.99,2.72
2026-06-22 00:15:04.127,4.54,-2.41,-2.57,2.9
2026-06-22 00:15:04.128,4.89,-2.72,-2.03,2.51
2026-06-22 00:15:04.129,3.25,-2.94,-2.51,4.61
2026-06-22 00:15:04.130,2.68,-2.48,-2.46,2.3
2026-06-22 00:15:04.131,3.17,-2.26,-2.72,1.4
2026-06-22 00:15:04.132,-0.62,-2.7,-0.37,1.14
2026-06-22 00:15:04.128,-2.86,-1.36,-1.72,0.27
2026-06-22 00:15:04.129,-5.25,-0.01,-4.73,-0.62
2026-06-22 00:15:04.130,-6.09,1.49,-3.84,-4.48
2026-06-22 00:15:04.131,-4.72,2.5,-3.93,-6.13
2026-06-22 00:15:04.132,-5.14,3.07,-1.33,-1.56
2026-06-22 00:15:04.133,-3.45,3.48,-1.68,-0.06
2026-06-22 00:15:04.134,-2.71,2.76,1.63,-0.94
2026-06-22 00:15:04.135,-2.72,3.48,7.39,0.26
2026-06-22 00:15:04.136,1,2.75,5.07,-0.95
2026-06-22 00:15:04.137,2,1.73,3.65,-0.71
2026-06-22 00:15:04.138,2.97,1.11,3.49,1.03
2026-06-22 00:15:04.139,2.77,-0.74,2.37,1.44
2026-06-22 00:15:04.140,2.23,-0.5,2.06,3.61
2026-06-22 00:15:04.141,4.06,-0.91,2.17,1.64
2026-06-22 00:15:04.142,3.82,-3.12,3.81,0.5
2026-06-22 00:15:04.143,3.36,-3.52,0.72,2.97
2026-06-22 00:15:04.144,1.59,-3.25,-2.2,1.35
2026-06-22 00:15:04.145,0.84,-4.26,-3.64,1.08
2026-06-22 00:15:04.146,1.2,-4,-3.36,0.86
2026-06-22 00:15:04.147,-0.68,-0.75,-2.71,1.09
2026-06-22 00:15:04.148,-0.15,0.84,-5.83,0.11
2026-06-22 00:15:04.149,-2.15,0.23,-4.42,-3.74
2026-06-22 00:15:04.150,-5.09,0.96,-2.5,-1.22
2026-06-22 00:15:04.151,-4.12,1.85,-1.63,-0.96
2026-06-22 00:15:04.152,-0.83,3.89,-0.63,-2.63
2026-06-22 00:15:04.153,0.27,2.65,0.25,-1.6
2026-06-22 00:15:04.154,-2.84,0.96,1.52,-2.14
2026-06-22 00:15:04.155,-2.1,3.34,2.09,0.25
2026-06-22 00:15:04.156,0.14,3.23,2.34,0.62
2026-06-22 00:15:04.157,0.19,0.83,3.18,0.68
2026-06-22 00:15:04.158,-1.18,-0.27,3.53,2.87
2026-06-22 00:15:04.159,2.11,-0.76,3.05,1.62
2026-06-22 00:15:04.160,4.67,-0.7,2.57,0.85
2026-06-22 00:15:04.161,3.63,-1.6,2.5,0.6
2026-06-22 00:15:04.162,4.16,-2.16,2.22,2.56
2026-06-22 00:15:04.163,1.76,-1.85,1.18,4.54
2026-06-22 00:15:04.164,-0.08,-2.66,0.01,-2.26
2026-06-22 00:15:04.165,0.26,-2.67,-2.64,-3.86
2026-06-22 00:15:04.166,-0.57,-2.08,-3.22,0.32
2026-06-22 00:15:04.167,0.24,-0.93,-4.29,-0.44
2026-06-22 00:15:04.168,-1.83,-0.68,-4.63,-1.96
2026-06-22 00:15:04.169,-2.15,-0.26,-3.13,-4.9
2026-06-22 00:15:04.170,-0.62,1,-3.55,-5.32
2026-06-22 00:15:04.171,-1.74,1.87,-0.42,-4.03
2026-06-22 00:15:04.172,-3.14,2.35,0.5,-2.16
2026-06-22 00:15:04.173,-2.35,2.54,-1.66,1.47
2026-06-22 00:15:04.174,0.26,2.85,-0.54,3.57
2026-06-22 00:15:04.175,0.46,2.27,-0.03,3.18
2026-06-22 00:15:04.176,1.9,0.71,2.41,0.53
2026-06-22 00:15:04.177,3.64,1.26,3.86,0.36
2026-06-22 00:15:04.182,0.77,0.84,4.63,1.73
2026-06-22 00:15:04.183,-1.41,-0.1,6.08,2.68
2026-06-22 00:15:04.184,1.05,-0.83,2.41,2.64
2026-06-22 00:15:04.185,1.03,-3.1,0.24,0.9
2026-06-22 00:15:04.186,1.04,-1.85,1.68,2.99
2026-06-22 00:15:04.187,0.35,-0.01,-0.59,1.47
2026-06-22 00:15:04.188,-0.2,-1.13,-3.17,1.09
2026-06-22 00:15:04.189,0.3,-3.11,-3.84,2.36
2026-06-22 00:15:04.190,-0.69,-2.65,-4.63,-1.86
2026-06-22 00:15:04.191,0.95,-1.3,-4.73,-2.54
2026-06-22 00:15:04.192,0.27,-0.3,-2.03,-3.09
2026-06-22 00:15:04.193,-3.57,1.15,0.39,-2.26
2026-06-22 00:15:04.194,-2.57,1.23,-1.6,-2.37
2026-06-22 00:15:04.195,-1.93,2.13,-3,-3.64
2026-06-22 00:15:04.196,-4.21,2.22,-1.87,-1.93
2026-06-22 00:15:04.197,-1.53,-0.89,3.35,-0.93
2026-06-22 00:15:04.198,-0.31,0.03,4.83,-0.71
2026-06-22 00:15:04.199,2.21,3.13,1.67,0.39
2026-06-22 00:15:04.200,3.49,1.83,1.92,1.65
2026-06-22 00:15:04.201,-1.39,-0.18,2.93,0.67
2026-06-22 00:15:04.202,0.4,0.39,1.83,-0.37
2026-06-22 00:15:04.203,1.99,0.66,2.26,0.92
2026-06-22 00:15:04.204,3.39,-0.31,2.28,0.88
2026-06-22 00:15:04.205,4.7,-0.85,2.08,2.26
2026-06-22 00:15:04.206,0.85,-1.44,1.03,2.35
2026-06-22 00:15:04.207,1.37,-2.57,-1.23,1.76
2026-06-22 00:15:04.208,3.15,-1.68,0.21,2.56
2026-06-22 00:15:04.209,1.12,-1.91,-4.04,0.81
2026-06-22 00:15:04.210,-1.61,-2.65,-9.51,0.46
2026-06-22 00:15:04.211,-2.28,-0.23,-4.32,-0.99
2026-06-22 00:15:04.212,-2.31,-0.11,-0.88,-0.16
2026-06-22 00:15:04.213,-4.53,-1.07,-1.54,1.29
2026-06-22 00:15:04.214,-4.39,0.97,-0.5,-2.16
2026-06-22 00:15:04.215,-3.09,2.76,-0.3,-3.36
2026-06-22 00:15:04.216,-1.81,1.72,0.86,-3.59
2026-06-22 00:15:04.217,-0.95,1.26,0.59,-3.67
2026-06-22 00:15:04.218,-2.26,2.6,2.1,-2.39
2026-06-22 00:15:04.219,-2.21,2.79,1.97,-2.5
2026-06-22 00:15:04.220,3.13,1.25,0.91,0.6
2026-06-22 00:15:04.221,3.78,0.25,2.7,2.01
2026-06-22 00:15:04.222,-1.27,0.22,2.04,1.52
2026-06-22 00:15:04.223,0.82,0.38,2.6,3.24
2026-06-22 00:15:04.224,3.66,-0.03,2.93,1.72
2026-06-22 00:15:04.225,4.03,-1.87,2.29,0.76
2026-06-22 00:15:04.226,0.99,-3.09,1.62,1.64
2026-06-22 00:15:04.227,1.84,-1.9,-0.36,3.63
2026-06-22 00:15:04.228,3.89,-2.44,-1.4,2.06
2026-06-22 00:15:04.229,2.11,-1.68,-2.33,1.58
2026-06-22 00:15:04.230,4.54,-1.19,-2.47,5.19
2026-06-22 00:15:04.231,0.81,-2.3,-0.39,2.64
2026-06-22 00:15:04.228,-3.76,-0.84,-2.24,-0.86
2026-06-22 00:15:04.229,-2.56,0.51,-3.58,-2.74
2026-06-22 00:15:04.230,-5.27,1.39,-0.28,-3.18
2026-06-22 00:15:04.231,-5.62,1.61,0.51,-3.29
2026-06-22 00:15:04.232,-3.97,1.73,0.27,-3.23
2026-06-22 00:15:04.233,-3.16,2.23,0.47,-4.24
2026-06-22 00:15:04.234,-1.21,2.14,0.28,-3.48
2026-06-22 00:15:04.235,-0.32,2.22,0.61,0.98
2026-06-22 00:15:04.236,0.25,1.73,1.57,-0.5
2026-06-22 00:15:04.237,0.96,1.61,1.83,-2.34
2026-06-22 00:15:04.238,3.11,1.55,2.11,0.83
2026-06-22 00:15:04.239,2.52,-1.05,2.12,1.21
2026-06-22 00:15:04.240,1.32,-0.16,1.73,-0.38
2026-06-22 00:15:04.241,1.74,-0.64,1.5,1.46
2026-06-22 00:15:04.242,1.56,-4.12,1.4,5.05
2026-06-22 00:15:04.243,1.86,-2.68,0.25,4.34
2026-06-22 00:15:04.244,1.54,-1.26,-0.77,2.17
2026-06-22 00:15:04.245,1.45,-1.42,-1.92,0.36
2026-06-22 00:15:04.246,1.04,-1.02,-4.41,-0.21
2026-06-22 00:15:04.247,-0.81,-1.24,-4.39,1.52
2026-06-22 00:15:04.248,-1.56,-0.97,-2.73,-1.22
2026-06-22 00:15:04.249,-2.13,-0.04,-3.02,-2.47
2026-06-22 00:15:04.250,-1.71,1.76,-2.57,-2.04
2026-06-22 00:15:04.251,-2.1,0.86,-1.81,-1.64
2026-06-22 00:15:04.252,-2.45,-0.6,-0.98,-2.11
2026-06-22 00:15:04.253,-0.38,2.9,4.23,-1.28
2026-06-22 00:15:04.254,-0.93,2.75,6.48,0.31
2026-06-22 00:15:04.255,-0.16,1.21,2.25,-1.68
2026-06-22 00:15:04.256,0.95,2.17,1.05,-1.17
2026-06-22 00:15:04.257,-0.55,1.01,1.34,0.68
2026-06-22 00:15:04.258,-0.23,1.41,0.77,0.68
2026-06-22 00:15:04.259,1.86,0.25,1.35,0.66
2026-06-22 00:15:04.260,2.9,-2.77,1.06,1.18
2026-06-22 00:15:04.261,3.73,-1.01,1.46,-0.07
2026-06-22 00:15:04.262,2.03,-0.44,-1.19,0.02
2026-06-22 00:15:04.263,0.99,-2.38,-0.36,2.27
2026-06-22 00:15:04.264,1.33,-2.47,1.98,1.7
2026-06-22 00:15:04.265,-0.83,-1.51,-0.05,-1
2026-06-22 00:15:04.266,-2.73,-0.63,-0.68,-1.37
2026-06-22 00:15:04.267,-2.11,-1.63,-2.12,-2.56
2026-06-22 00:15:04.268,-1.09,-1.43,-2.99,-0.47
2026-06-22 00:15:04.269,-0.64,0.16,-1.92,-0.21
2026-06-22 00:15:04.270,-0.47,1.11,-2.98,-2.45
2026-06-22 00:15:04.271,-1.68,1.15,-3.2,-0.95
2026-06-22 00:15:04.272,-3.05,1,-1.74,0.01
2026-06-22 00:15:04.273,-3.47,1.77,-2.42,2.08
2026-06-22 00:15:04.274,-0.13,1.93,-0.36,3.35
2026-06-22 00:15:04.275,2.69,1.83,4.27,1.27
2026-06-22 00:15:04.276,2.27,1.51,1.88,-1.18
2026-06-22 00:15:04.277,1.93,0.47,-0.34,-0.75
2026-06-22 00:15:04.283,2.82,0.8,-0.02,1.11
2026-06-22 00:15:04.284,1.08,0.27,1.68,0.82
2026-06-22 00:15:04.285,-1.23,-0.71,8.26,0.11
2026-06-22 00:15:04.286,0.44,-1.45,3.2,1.46
2026-06-22 00:15:04.287,2.51,-1.17,-1.09,1.58
2026-06-22 00:15:04.288,1.32,-1.06,1.79,3.61
2026-06-22 00:15:04.289,0.82,-0.35,-0.43,2.1
2026-06-22 00:15:04.290,-0.35,-0.71,-1.37,0.17
2026-06-22 00:15:04.291,-1.15,-1.48,-1.52,-0.33
2026-06-22 00:15:04.292,0.05,0.56,-3.2,-1.53
2026-06-22 00:15:04.293,-1.6,-0.11,-2.8,-1.1
2026-06-22 00:15:04.294,-2.48,1.74,-1.21,-3.47
2026-06-22 00:15:04.295,-4.12,1.16,-0.15,-4.7
2026-06-22 00:15:04.296,-2.92,-3.88,-0.17,-5.79
2026-06-22 00:15:04.297,-0.3,0.37,-1.71,-5.58
2026-06-22 00:15:04.298,0.25,1.2,1.38,-0.56
2026-06-22 00:15:04.299,1.33,-0.58,4.31,1.63
2026-06-22 00:15:04.300,1.25,2.38,1.1,2.02
2026-06-22 00:15:04.301,-0.5,0.84,-0.02,1.87
2026-06-22 00:15:04.302,0.03,1.67,1.61,0.44
2026-06-22 00:15:04.303,2.36,0.5,0.84,3.32
2026-06-22 00:15:04.304,2.58,-1.74,1.47,2.59
2026-06-22 00:15:04.305,0.62,0.13,1.57,-0.03
2026-06-22 00:15:04.306,0.76,1.26,1.4,0.94
2026-06-22 00:15:04.307,2.72,-0.67,0.78,0.7
2026-06-22 00:15:04.308,1.61,-1.91,0.02,0.89
2026-06-22 00:15:04.309,-0.75,-1.74,-1.21,3.3
2026-06-22 00:15:04.310,-1.04,-1.43,-2.29,1.35
2026-06-22 00:15:04.311,-1.62,-0.51,-2.37,0.23
2026-06-22 00:15:04.312,-1.21,0.28,-3.64,3.03
2026-06-22 00:15:04.313,2.64,0.35,-3.1,2.68
2026-06-22 00:15:04.314,-1.39,-0.11,-4.67,-0.38
2026-06-22 00:15:04.315,-3.47,-0.31,-3.25,-1.65
2026-06-22 00:15:04.316,-1.02,1.18,3.98,-0.53
2026-06-22 00:15:04.317,-1.7,1.84,5.62,-1.44
2026-06-22 00:15:04.318,-1.92,1.47,3.1,-2.78
2026-06-22 00:15:04.319,-1.1,1.06,1.81,-4.78
2026-06-22 00:15:04.320,-1.38,0.47,0.69,-3.46
2026-06-22 00:15:04.321,-0.11,0.57,-1.32,-1.45
2026-06-22 00:15:04.322,1.77,0.57,-1.96,-2.59
2026-06-22 00:15:04.323,-0.13,0.56,1.85,0.62
2026-06-22 00:15:04.324,0.07,-0.43,0.72,1.4
2026-06-22 00:15:04.325,2.59,-0.2,-1.92,1.8
2026-06-22 00:15:04.326,3.27,-1.47,-1.41,2.15
2026-06-22 00:15:04.327,4.4,-1.41,0.3,0.51
2026-06-22 00:15:04.328,2.32,0.35,0.28,2.42
2026-06-22 00:15:04.329,0.23,-0.73,-0.21,2
2026-06-22 00:15:04.330,1.71,-2.62,-0.24,-0.07
2026-06-22 00:15:04.331,-1.07,-2.08,-2.35,-0.43
2026-06-22 00:15:04.332,0.58,-0.2,-3.09,-0.47
2026-06-22 00:15:04.329,2.35,0.04,-5.16,-0.62
2026-06-22 00:15:04.330,-2.04,-0.61,-3.42,-0.73
2026-06-22 00:15:04.331,-4.67,0.67,0.09,0.44
2026-06-22 00:15:04.332,-3.69,1.21,-1.5,-2.26
2026-06-22 00:15:04.333,-2.3,1.25,-0.76,-4
2026-06-22 00:15:04.334,-2.57,1.85,-0.53,0.17
2026-06-22 00:15:04.335,-2.73,1.45,0.85,3.45
2026-06-22 00:15:04.336,-1.18,0.36,6.2,2.63
2026-06-22 00:15:04.337,-0.84,0.48,6.52,1.2
2026-06-22 00:15:04.338,-0.46,1.56,5.95,2.37
2026-06-22 00:15:04.339,1.47,0.78,3.96,-0.2
2026-06-22 00:15:04.340,3.18,-0.68,-0.36,-3.48
2026-06-22 00:15:04.341,2.35,0.25,-2.18,-1.84
2026-06-22 00:15:04.342,-0.08,0.23,-1.57,0.19
2026-06-22 00:15:04.343,1.85,-2.52,-1.64,0.77
2026-06-22 00:15:04.344,3.96,-0.71,-1.56,1.36
2026-06-22 00:15:04.345,2.41,-2.11,-1.61,1.04
2026-06-22 00:15:04.346,1.37,-3.56,-1.68,0.28
2026-06-22 00:15:04.347,-1.5,-0.36,-1.65,-1.6
2026-06-22 00:15:04.348,-0.33,-0.72,-3.27,-1.81
2026-06-22 00:15:04.349,1.93,0.59,-2.95,-0.32
2026-06-22 00:15:04.350,-3.77,1.02,-1.29,-0.57
2026-06-22 00:15:04.351,-2.28,-0.72,-2.38,-0.96
2026-06-22 00:15:04.352,0.71,1.27,-1.92,-0.3
2026-06-22 00:15:04.353,-0.95,0.59,-0.85,-0.16
2026-06-22 00:15:04.354,0.59,-0.08,-0.82,0.1
2026-06-22 00:15:04.355,-0.36,2.16,0.92,0.56
2026-06-22 00:15:04.356,-2.64,2.07,1.49,1.3
2026-06-22 00:15:04.357,-2.09,1.78,1.82,1.81
2026-06-22 00:15:04.358,-0.82,0.61,2.47,2.08
2026-06-22 00:15:04.359,-0.04,-0.56,2.2,1.62
2026-06-22 00:15:04.360,0.91,-0.12,1.24,-3.08
2026-06-22 00:15:04.361,2.36,0.08,2.8,-4.41
2026-06-22 00:15:04.362,0.48,-0.69,3.45,-1.03
2026-06-22 00:15:04.363,-0.38,-0.72,1.18,3.13
2026-06-22 00:15:04.364,1.88,-0.98,2.52,3.51
2026-06-22 00:15:04.365,2.04,-1.08,1.36,-0.69
2026-06-22 00:15:04.366,-0.26,-0.85,-2.97,-0.23
2026-06-22 00:15:04.367,2.17,-1,-2.18,1.1
2026-06-22 00:15:04.368,2.08,-1.15,-2.04,0.77
2026-06-22 00:15:04.369,-1.37,-0.55,-1.88,2.25
2026-06-22 00:15:04.370,0.21,0.3,-0.65,0.07
2026-06-22 00:15:04.371,-1.71,0.04,0.59,-0.63
2026-06-22 00:15:04.372,-3.15,0.93,1.39,0.56
2026-06-22 00:15:04.373,-0.76,1.26,0.35,-2.99
2026-06-22 00:15:04.374,-0.6,0.46,-0.88,-5.39
2026-06-22 00:15:04.375,-1.51,0.69,-0.44,-4.15
2026-06-22 00:15:04.376,-1.06,1.91,0.09,-0.63
2026-06-22 00:15:04.377,0.45,0.55,0.26,0.5
2026-06-22 00:15:04.378,1.64,-0.96,0.79,0.16
2026-06-22 00:15:04.384,0.8,0.19,0.44,0.32
2026-06-22 00:15:04.385,0.85,-0.18,1.05,1.32
2026-06-22 00:15:04.386,-0.11,-0.92,1.64,0.61
2026-06-22 00:15:04.387,-0.47,-0.13,0.74,1.12
2026-06-22 00:15:04.388,-0.8,-0.43,0.15,2.84
2026-06-22 00:15:04.389,0.74,-0.37,1.7,3.39
2026-06-22 00:15:04.390,2.83,-0.54,1.79,4.88
2026-06-22 00:15:04.391,-0.37,-0.89,0.28,2.66
2026-06-22 00:15:04.392,-0.72,-0.26,1.49,-0.35
2026-06-22 00:15:04.393,2.24,-0.26,0.6,0.47
2026-06-22 00:15:04.394,-1.32,0.4,-1.33,-1.9
2026-06-22 00:15:04.395,-1.66,-1.18,-0.85,-2.6
2026-06-22 00:15:04.396,2.12,-2.11,-0.63,-1.8
2026-06-22 00:15:04.397,-0.45,0.25,0.06,-1.89
2026-06-22 00:15:04.398,-2.52,1.63,0.24,0.55
2026-06-22 00:15:04.399,-1.26,0.7,3.12,-1.7
2026-06-22 00:15:04.400,-1.35,0.1,0.88,-2.69
2026-06-22 00:15:04.401,-2.41,1.59,-4.23,-1.19
2026-06-22 00:15:04.402,1.63,1.29,-0.04,-1.8
2026-06-22 00:15:04.403,1.9,-0.19,1.71,-3.62
2026-06-22 00:15:04.404,0.6,-0.11,2.18,-2.73
2026-06-22 00:15:04.405,3.1,0.08,2.84,-1.55
2026-06-22 00:15:04.406,1.17,-0.65,1.22,-1.04
2026-06-22 00:15:04.407,-1.25,-1.32,2.06,0.15
2026-06-22 00:15:04.408,1.19,-0.13,2.67,0.66
2026-06-22 00:15:04.409,0.99,-0.24,1.15,1.5
2026-06-22 00:15:04.410,0.24,-1.62,1.4,4.38
2026-06-22 00:15:04.411,1.24,-0.31,0.18,6.74
2026-06-22 00:15:04.412,-1.84,0.26,-1.55,6.72
2026-06-22 00:15:04.413,-2.47,-0.72,-0.39,7.41
2026-06-22 00:15:04.414,-0.56,0,-2.26,3.7
2026-06-22 00:15:04.415,-3.2,0.65,-0.32,-1.95
2026-06-22 00:15:04.416,-1.55,1.43,1.28,-3.08
2026-06-22 00:15:04.417,0.83,1.28,-0.18,-2.28
2026-06-22 00:15:04.418,-1.98,0.23,1.54,-2.65
2026-06-22 00:15:04.419,0.95,1.92,-0.71,-3.26
2026-06-22 00:15:04.420,1.66,1.75,0.21,-2.58
2026-06-22 00:15:04.421,0.21,-0.05,1.25,-0.98
2026-06-22 00:15:04.422,-0.76,0.66,-3.03,0.79
2026-06-22 00:15:04.423,-0.43,-0.22,1.77,-0.35
2026-06-22 00:15:04.424,1,0.42,0.68,-1.82
2026-06-22 00:15:04.425,0.18,-0.03,-0.29,0.27
2026-06-22 00:15:04.426,2.88,-2.38,2.08,-0.7
2026-06-22 00:15:04.427,3.36,-0.51,-1.39,0.07
2026-06-22 00:15:04.428,0.48,-1.22,-0.24,1.81
2026-06-22 00:15:04.429,0.8,-3.16,0.68,-0.77
2026-06-22 00:15:04.430,0.56,-0.69,-1.68,-0.04
2026-06-22 00:15:04.431,0.7,0.85,-1.78,-0.08
2026-06-22 00:15:04.432,1.86,-0.57,-1.57,-2.13
2026-06-22 00:15:04.433,-0.23,-0.51,-2.04,-1.31
2026-06-22 00:15:04.428,1.78,-0.34,-1.97,-1.21
2026-06-22 00:15:04.429,1.3,-0.08,-0.72,-0.97
2026-06-22 00:15:04.430,-3.78,0.84,0.43,-1.61
2026-06-22 00:15:04.431,-3.69,1.03,0.63,-3
2026-06-22 00:15:04.432,-1.48,1.22,0.93,0.34
2026-06-22 00:15:04.433,-1.88,1.92,-2.42,3.1
2026-06-22 00:15:04.434,-3.01,1.39,-2.05,1.33
2026-06-22 00:15:04.435,-1.67,0.14,-1.45,1.89
2026-06-22 00:15:04.436,1.99,0.54,-1.81,5.07
2026-06-22 00:15:04.437,1.34,1.27,-0.39,5.29
2026-06-22 00:15:04.438,-0.06,0.26,-1.3,5.16
2026-06-22 00:15:04.439,0.59,-0.01,-0.04,-0.14
2026-06-22 00:15:04.440,-0.93,0.65,0.39,-3.72
2026-06-22 00:15:04.441,0.26,0.41,1.87,-4.64
2026-06-22 00:15:04.442,2.48,-1.26,3.96,-4.74
2026-06-22 00:15:04.443,1.7,-2.13,-0.6,-1.81
2026-06-22 00:15:04.444,-0.01,-1.33,-0.54,-2.2
2026-06-22 00:15:04.445,1.2,-1.27,-0.14,-2.1
2026-06-22 00:15:04.446,2.89,-0.22,-4.42,0.68
2026-06-22 00:15:04.447,1.46,0.56,-2.19,1.42
2026-06-22 00:15:04.448,-1.29,-0.54,-1.98,5.2
2026-06-22 00:15:04.449,-1.17,-0.59,-3.57,4.77
2026-06-22 00:15:04.450,-1.34,0.74,-2.41,1.06
2026-06-22 00:15:04.451,1.67,0.61,-4.96,2.19
2026-06-22 00:15:04.452,2.22,0.34,-6.68,1.01
2026-06-22 00:15:04.453,-3.99,0.82,-3.94,-2.32
2026-06-22 00:15:04.454,-1.47,0.39,-0.69,-1.36
2026-06-22 00:15:04.455,3.14,0.01,1.09,2.83
2026-06-22 00:15:04.456,-1.63,0.91,1.64,-1.27
2026-06-22 00:15:04.457,-2.17,0.47,1.12,-3
2026-06-22 00:15:04.458,0.24,-0.35,3.78,-4.99
2026-06-22 00:15:04.459,-0.33,-0.03,5.75,-7.12
2026-06-22 00:15:04.460,1.38,-0.18,2.44,-0.13
2026-06-22 00:15:04.461,0.92,-0.44,1.75,1.22
2026-06-22 00:15:04.462,-1.73,0.12,4.96,-1.24
2026-06-22 00:15:04.463,1.24,0.08,3.18,2.65
2026-06-22 00:15:04.464,3.55,-0.92,-0.18,2.98
2026-06-22 00:15:04.465,-1.84,-1.54,0.64,-0.56
2026-06-22 00:15:04.466,-2.42,-0.86,0.32,-1.2
2026-06-22 00:15:04.467,-0.36,0.27,1.6,-0.5
2026-06-22 00:15:04.468,-2.84,0.21,0.15,-1.54
2026-06-22 00:15:04.469,-3.07,-0.17,-4.01,-0.8
2026-06-22 00:15:04.470,-0.15,-0.24,-5.34,-0.23
2026-06-22 00:15:04.471,1.21,0.16,-6.08,-1.63
2026-06-22 00:15:04.472,3.14,0.85,-4.16,-1.54
2026-06-22 00:15:04.473,3.51,1.1,-0.63,-1.69
2026-06-22 00:15:04.474,-0.59,0.13,1.64,-1.43
2026-06-22 00:15:04.475,0.83,0.24,2.31,1.48
2026-06-22 00:15:04.476,2.45,0.75,2.07,4.73
2026-06-22 00:15:04.477,0.71,-0.09,1.93,6.26
2026-06-22 00:15:04.489,0.15,0.52,1.91,7.43
2026-06-22 00:15:04.490,-1.82,0.14,4.14,9.7
2026-06-22 00:15:04.491,-1.82,-0.49,3.47,6.79
2026-06-22 00:15:04.492,-2.11,0.51,2.53,2.82
2026-06-22 00:15:04.493,-0.82,0.03,3.98,-0.32
2026-06-22 00:15:04.494,0.09,-0.31,2.25,-2.52
2026-06-22 00:15:04.495,-0.48,-0.97,2.45,-2.09
2026-06-22 00:15:04.496,0.66,-0.76,-0.04,-2.71
2026-06-22 00:15:04.497,-1.94,-0.14,-2.03,-0.91
2026-06-22 00:15:04.498,-2.25,-1.09,-0.78,-1.69
2026-06-22 00:15:04.499,1.67,0.29,0.12,-5.83
2026-06-22 00:15:04.500,-0.97,0.85,-0.55,-6.12
2026-06-22 00:15:04.501,-3.34,0.12,-1.83,-3.03
2026-06-22 00:15:04.502,-0.88,1.2,-0.01,-2.39
2026-06-22 00:15:04.503,-1.22,-0.31,0.05,-4.52
2026-06-22 00:15:04.504,-1,-0.89,1.74,-7.44
2026-06-22 00:15:04.505,3.87,0.61,1,-5.31
2026-06-22 00:15:04.506,3.61,-0.22,-3.11,-3.09
2026-06-22 00:15:04.507,-0.08,-0.16,-1.76,-2.23
2026-06-22 00:15:04.508,1.56,0.89,-0.42,0.4
2026-06-22 00:15:04.509,2.76,0.42,0.47,1.32
2026-06-22 00:15:04.510,-0.75,-1.29,0.96,3.07
2026-06-22 00:15:04.511,-0.7,-0.72,-0.75,6.64
2026-06-22 00:15:04.512,1.04,0.58,-0.98,6.4
2026-06-22 00:15:04.513,1.33,-0.35,-0.71,6.81
2026-06-22 00:15:04.514,1.03,-0.35,0.35,7.17
2026-06-22 00:15:04.515,-2.09,0,-0.96,5.8
2026-06-22 00:15:04.516,-1.11,-0.14,-2.14,5.21
2026-06-22 00:15:04.517,-0.61,-0.23,-0.38,3.47
2026-06-22 00:15:04.518,-1.32,-0.57,-1.39,2.17
2026-06-22 00:15:04.519,0.99,-0.16,-1.82,-1.14
2026-06-22 00:15:04.520,-0.65,-0.25,-0.39,-3.42
2026-06-22 00:15:04.521,-2.76,0.14,1.03,-3.82
2026-06-22 00:15:04.522,-1.19,0.71,1.1,-4.81
2026-06-22 00:15:04.523,-0.53,0.45,1.07,-5.41
2026-06-22 00:15:04.524,1.22,0.7,0.63,-2.92
2026-06-22 00:15:04.525,1.41,0.6,-0.21,-1.3
2026-06-22 00:15:04.526,-3.61,0.53,-1.07,-1.89
2026-06-22 00:15:04.527,-1.71,0.56,-1.38,-2.61
2026-06-22 00:15:04.528,1.52,1.04,-0.18,-2.81
2026-06-22 00:15:04.529,-2.37,0.34,-0.25,-2.34
2026-06-22 00:15:04.530,-2.08,-0.04,-1.75,-2.65
2026-06-22 00:15:04.531,0.32,0.91,-2.37,0.17
2026-06-22 00:15:04.532,2.96,-1.18,0.51,2.58
2026-06-22 00:15:04.533,3.56,-2.32,0.19,0.48
2026-06-22 00:15:04.534,2.95,-0.59,-3.05,-0.26
2026-06-22 00:15:04.535,0.83,-0.78,-3.44,1.69
2026-06-22 00:15:04.536,0.42,-0.39,-3.92,1.61
2026-06-22 00:15:04.537,3.33,-0.86,-2.71,0.07
2026-06-22 00:15:04.538,1.63,-1.6,-0.96,0.42
2026-06-22 00:15:04.528,1.48,0.09,-0.24,1.34
2026-06-22 00:15:04.529,2.11,0.24,-0.95,1.07
2026-06-22 00:15:04.530,-2.53,0.52,-0.88,1.23
2026-06-22 00:15:04.531,-4.76,0.3,0.42,1.1
2026-06-22 00:15:04.532,-3.47,0.99,-0.06,-0.05
2026-06-22 00:15:04.533,-1.69,1.86,0.15,-1.08
2026-06-22 00:15:04.534,-1.3,0.42,-0.3,-0.78
2026-06-22 00:15:04.535,-0.88,0.3,1.22,-2.57
2026-06-22 00:15:04.536,-1.82,0.25,2.55,-1.75
2026-06-22 00:15:04.537,-0.95,0.36,1.51,1.45
2026-06-22 00:15:04.538,3.17,0.67,1.68,2.13
2026-06-22 00:15:04.539,1.53,0.34,2.17,1.6
2026-06-22 00:15:04.540,-0.55,0.31,1.11,0.98
2026-06-22 00:15:04.541,1.88,0.28,-0.17,-0.64
2026-06-22 00:15:04.542,2.55,0.12,0.73,-2.99
2026-06-22 00:15:04.543,-2.22,-1.41,-0.72,-1.21
2026-06-22 00:15:04.544,-0.81,-1.37,-0.01,-0.43
2026-06-22 00:15:04.545,3.83,-1.55,1.6,-0.18
2026-06-22 00:15:04.546,-0.7,-1.91,-2.7,0.27
2026-06-22 00:15:04.547,-0.87,0.1,-1.98,0.63
2026-06-22 00:15:04.548,1.3,-0.2,-0.44,1.24
2026-06-22 00:15:04.549,0.44,-0.39,-1.21,0.44
2026-06-22 00:15:04.550,-0.28,0.62,-0.73,1.32
2026-06-22 00:15:04.551,-1.42,-0.17,0.48,0.94
2026-06-22 00:15:04.552,0.42,0.73,1.31,2.22
2026-06-22 00:15:04.553,-1.83,1.45,-0.22,4.09
2026-06-22 00:15:04.554,-1.36,0.72,0.26,2.72
2026-06-22 00:15:04.555,1.92,0.62,1.26,-1.86
2026-06-22 00:15:04.556,0.02,0.48,2.43,-6.59
2026-06-22 00:15:04.557,-0.41,0.55,0.82,-2.45
2026-06-22 00:15:04.558,0.22,0.07,1.38,1.17
2026-06-22 00:15:04.559,0.73,1.29,2.46,0.35
2026-06-22 00:15:04.560,0.94,2.03,-0.97,-2.09
2026-06-22 00:15:04.561,0.15,-1.28,-0.61,-2.02
2026-06-22 00:15:04.562,2.34,-2.07,2.49,2.45
2026-06-22 00:15:04.563,-0.88,0.04,1.69,1.23
2026-06-22 00:15:04.564,-2.63,-0.46,-0.6,-0.02
2026-06-22 00:15:04.565,-0.46,-1.63,0.7,0.64
2026-06-22 00:15:04.566,-0.81,-1.17,0.1,-0.2
2026-06-22 00:15:04.567,0.39,-0.02,-1.89,-0.05
2026-06-22 00:15:04.568,1.6,-0.21,0.34,-0.51
2026-06-22 00:15:04.569,0.77,0.15,1.64,0.16
2026-06-22 00:15:04.570,-1.3,0.74,-0.59,0.79
2026-06-22 00:15:04.571,-1.76,-0.5,-1.98,0.59
2026-06-22 00:15:04.572,-0.54,-0.66,-0.42,-0.14
2026-06-22 00:15:04.573,-0.22,0.33,0.84,-0.31
2026-06-22 00:15:04.574,0.86,0.17,-0.08,-0.11
2026-06-22 00:15:04.575,2.05,-0.5,0.68,-1.07
2026-06-22 00:15:04.576,1.89,0.02,0.92,-0.73
2026-06-22 00:15:04.577,2.74,0.11,0.73,-0.25
2026-06-22 00:15:04.590,0.5,-0.26,0.99,0.21
2026-06-22 00:15:04.591,-3.15,-0.1,0.78,2.2
2026-06-22 00:15:04.592,-2.62,-0.67,0.95,1.65
2026-06-22 00:15:04.593,-0.75,-0.18,-0.07,0.65
2026-06-22 00:15:04.594,-1.47,0.54,0.03,1.33
2026-06-22 00:15:04.595,-0.15,-0.2,-0.21,0.39
2026-06-22 00:15:04.596,2.25,1.32,-0.16,1.11
2026-06-22 00:15:04.597,1.04,0.55,1.37,-1.07
2026-06-22 00:15:04.598,-1.5,0.12,0.32,-0.59
2026-06-22 00:15:04.599,-0.08,-0.12,-0.73,1.42
2026-06-22 00:15:04.600,2.63,-0.2,-0.67,-1.8
2026-06-22 00:15:04.601,-2.84,2.06,-1.14,0.65
2026-06-22 00:15:04.602,-2.32,0.79,-0.44,2.18
2026-06-22 00:15:04.603,2.44,1.56,0.92,-1.29
2026-06-22 00:15:04.604,-1.01,-0.19,0.97,-0.55
2026-06-22 00:15:04.605,-0.15,-3.03,2.37,0.69
2026-06-22 00:15:04.606,1.58,-0.22,1.81,-1.28
2026-06-22 00:15:04.607,-0.1,1.49,-1.82,-0.34
2026-06-22 00:15:04.608,-0.27,0.01,-1.01,1.39
2026-06-22 00:15:04.609,-1.3,-1.14,-0.84,-0.82
2026-06-22 00:15:04.610,-1.85,-1.31,-2.35,-3.64
2026-06-22 00:15:04.611,0.22,-0.9,0.1,-4.18
2026-06-22 00:15:04.612,1.33,-0.99,-0.5,-3.21
2026-06-22 00:15:04.613,-0.43,0.07,-0.47,0.1
2026-06-22 00:15:04.614,1.44,0.05,1.63,-0.02
2026-06-22 00:15:04.615,4.18,0.26,-0.58,-1.45
2026-06-22 00:15:04.616,-0.31,0.22,1.44,-1.97
2026-06-22 00:15:04.617,-0.6,-0.11,3.03,0.92
2026-06-22 00:15:04.618,-0.11,1.23,-1.32,4
2026-06-22 00:15:04.619,-0.99,0.52,-3.46,2.55
2026-06-22 00:15:04.620,1.14,0.69,-1.93,1.54
2026-06-22 00:15:04.621,-0.62,0.58,1.44,2.86
2026-06-22 00:15:04.622,-1.1,-0.06,0.67,0.05
2026-06-22 00:15:04.623,0.85,0.98,-1.57,-4.33
2026-06-22 00:15:04.624,-1.68,1.23,-0.42,-0.14
2026-06-22 00:15:04.625,-0.95,-0.1,-0.08,0.4
2026-06-22 00:15:04.626,0.09,-0.05,1.45,0.15
2026-06-22 00:15:04.627,-0.11,0.2,2.79,3.2
2026-06-22 00:15:04.628,1.43,-0.62,2.78,0.82
2026-06-22 00:15:04.629,-0.44,-0.54,-0.05,1.28
2026-06-22 00:15:04.630,-0.01,-0.41,-3.19,4.38
2026-06-22 00:15:04.631,1.19,-1.8,0.5,3.54
2026-06-22 00:15:04.632,-0.76,-0.69,3.08,3.37
2026-06-22 00:15:04.633,-1.31,0.75,-0.47,-1.85
2026-06-22 00:15:04.634,-0.35,-0.77,-2.1,-4.85
2026-06-22 00:15:04.635,-0.84,0.14,0.11,-2.92
2026-06-22 00:15:04.636,1.45,-0.04,-1.32,-1.31
2026-06-22 00:15:04.637,3.68,-0.22,-0.57,2.26
2026-06-22 00:15:04.638,2.14,1.73,0.07,1.58
2026-06-22 00:15:04.639,2.14,1.93,-1.34,-5.04
2026-06-22 00:15:04.629,0.08,-0.3,0.45,-7.7
2026-06-22 00:15:04.630,-3.71,-0.42,-0.95,-3.78
2026-06-22 00:15:04.631,-1.73,0.82,0.13,-0.16
2026-06-22 00:15:04.632,1.63,-0.27,-1.68,-0.37
2026-06-22 00:15:04.633,1.55,-0.46,-4.56,-1.52
2026-06-22 00:15:04.634,-1.87,-0.2,0.43,-0.2
2026-06-22 00:15:04.635,-1.21,-0.36,0.67,1.15
2026-06-22 00:15:04.636,-1.75,-0.11,0.09,2.61
2026-06-22 00:15:04.637,-2.22,0.27,1.66,3.15
2026-06-22 00:15:04.638,1.49,-0.05,-0.16,2.36
2026-06-22 00:15:04.639,-0.67,-0.01,1.22,2.16
2026-06-22 00:15:04.640,-1.52,-0.04,-0.61,2.14
2026-06-22 00:15:04.641,1.2,-0.3,-1.64,3.74
2026-06-22 00:15:04.642,0.61,-0.84,0.63,2.64
2026-06-22 00:15:04.643,-1.88,-1.29,0.64,-0.34
2026-06-22 00:15:04.644,-2.47,-0.8,1.42,-0.79
2026-06-22 00:15:04.645,0.51,0.3,1,-0.8
2026-06-22 00:15:04.646,3.91,0.05,-0.87,-1.76
2026-06-22 00:15:04.647,3.05,-1.11,-1.68,-0.62
2026-06-22 00:15:04.648,0.59,-0.63,-1.68,-0.4
2026-06-22 00:15:04.649,0.04,-0.06,-2.46,-2.98
2026-06-22 00:15:04.650,-1.75,0.35,-0.99,-2.76
2026-06-22 00:15:04.651,-0.79,0.22,2.06,0.3
2026-06-22 00:15:04.652,2.74,0.51,1.02,0.63
2026-06-22 00:15:04.653,0.81,0.47,-2.42,0.07
2026-06-22 00:15:04.654,-0.25,0.58,-3.63,3.58
2026-06-22 00:15:04.655,0.83,1.51,-1.06,4.19
2026-06-22 00:15:04.656,-1.37,0.46,-0.21,2.1
2026-06-22 00:15:04.657,0.45,0.19,-1.39,0.91
2026-06-22 00:15:04.658,-0.32,0.21,1.79,1.36
2026-06-22 00:15:04.659,-3.14,-0.48,2.41,0.39
2026-06-22 00:15:04.660,0.96,0.11,0.99,-2.95
2026-06-22 00:15:04.661,-0.29,0.21,0.14,-2.42
2026-06-22 00:15:04.662,-3.18,-0.62,1.95,-2.39
2026-06-22 00:15:04.663,-0.81,-0.76,2.38,-4.06
2026-06-22 00:15:04.664,-1.58,-1.27,2.11,-0.43
2026-06-22 00:15:04.665,0.7,-0.88,3.16,-0.34
2026-06-22 00:15:04.666,3.7,0.6,1.89,-0.77
2026-06-22 00:15:04.667,-1,-0.23,3,-0.42
2026-06-22 00:15:04.668,-0.4,-0.59,1.15,-0.39
2026-06-22 00:15:04.669,2.19,0.53,-1.55,0.3
2026-06-22 00:15:04.670,-1.17,0.47,0.27,-0.05
2026-06-22 00:15:04.671,-2.14,0.78,0.31,0.61
2026-06-22 00:15:04.672,1.23,-0.38,-0.27,0.26
2026-06-22 00:15:04.673,-0.68,-0.41,-1.25,-0.15
2026-06-22 00:15:04.674,-3.24,0.98,-0.7,-0.1
2026-06-22 00:15:04.675,3.52,-0.19,0.08,0.26
2026-06-22 00:15:04.676,4.92,0.04,0.49,1.34
2026-06-22 00:15:04.677,0.77,0.49,0.28,2.45
2026-06-22 00:15:04.678,0.46,0.74,-1.77,2.12
2026-06-22 00:15:04.688,-0.23,1.07,-1.36,3.09
2026-06-22 00:15:04.689,-1.92,-0.19,1.2,3.79
2026-06-22 00:15:04.690,-1.81,0.13,0.57,1
2026-06-22 00:15:04.691,0.48,-0.38,-0.92,-0.75
2026-06-22 00:15:04.692,-0.01,-0.73,1.6,-0.85
2026-06-22 00:15:04.693,-2.07,0.39,1.28,-2.28
2026-06-22 00:15:04.694,-1.63,-0.08,1.84,-3.07
2026-06-22 00:15:04.695,-1.16,-0.99,1.5,-2.56
2026-06-22 00:15:04.696,1.87,-0.19,-0.58,-2.42
2026-06-22 00:15:04.697,2.42,0.07,2.11,-3.1
2026-06-22 00:15:04.698,-0.67,0.62,1.55,-2.53
2026-06-22 00:15:04.699,0.42,0.32,-0.8,-1.42
2026-06-22 00:15:04.700,0.93,0.7,0.44,-0.72
2026-06-22 00:15:04.701,-0.7,1.39,1.13,-0.45
2026-06-22 00:15:04.702,-1.97,-0.15,1.28,0.79
2026-06-22 00:15:04.703,-1.89,0.16,1.57,2.4
2026-06-22 00:15:04.704,-0.81,-0.47,4.12,3.61
2026-06-22 00:15:04.705,1.8,-0.3,1.93,-0.08
2026-06-22 00:15:04.706,2.6,-0.05,-4.1,-8.85
2026-06-22 00:15:04.707,-0.08,-0.28,-3.96,-4.38
2026-06-22 00:15:04.708,0.34,-0.26,0.48,0.6
2026-06-22 00:15:04.709,0.35,-1.6,2.11,-4.07
2026-06-22 00:15:04.710,-2.28,-1.78,0.04,-1.78
2026-06-22 00:15:04.711,-0.55,1.04,-2.33,-0.81
2026-06-22 00:15:04.712,2.55,1.6,-3.9,0.87
2026-06-22 00:15:04.713,2.67,0.47,-1.13,3.21
2026-06-22 00:15:04.714,1.76,0.34,-0.94,1.66
2026-06-22 00:15:04.715,0.28,-0.02,-1.54,5.57
2026-06-22 00:15:04.716,-0.41,-0.01,1.44,7.99
2026-06-22 00:15:04.717,-1.33,-0.28,0.88,7.36
2026-06-22 00:15:04.718,-0.58,-1.34,0.47,10.22
2026-06-22 00:15:04.719,-0.65,-0.17,0.01,8.22
2026-06-22 00:15:04.720,-2.02,0.97,0.76,5.5
2026-06-22 00:15:04.721,-3.15,0.13,1.04,3.32
2026-06-22 00:15:04.722,-1.67,-0.07,-0.43,-6.2
2026-06-22 00:15:04.723,0.87,-0.42,1.12,-9.82
2026-06-22 00:15:04.724,0.23,0.45,-0.36,-7.73
2026-06-22 00:15:04.725,1.28,1.3,-2.18,-7.65
2026-06-22 00:15:04.726,2.77,0.14,0.4,-4.57
2026-06-22 00:15:04.727,0.21,-1.08,0.07,-2.08
2026-06-22 00:15:04.728,-0.99,-0.04,0.48,-1.06
2026-06-22 00:15:04.729,0.73,0.31,0.6,-0.76
2026-06-22 00:15:04.730,-1.05,0.02,-1.22,-3.14
2026-06-22 00:15:04.731,-0.19,0.02,-0.41,-1.58
2026-06-22 00:15:04.732,2.72,-0.63,-1.66,-1.35
2026-06-22 00:15:04.733,0.93,-0.14,-0.63,-2.84
2026-06-22 00:15:04.734,-0.36,-0.47,-0.59,0.08
2026-06-22 00:15:04.735,1.75,-0.11,-3.73,2.77
2026-06-22 00:15:04.736,-0.19,-0.32,-2.23,3.64
2026-06-22 00:15:04.737,0.29,-0.8,2.17,3.67
2026-06-22 00:15:04.729,2.59,0.73,2.14,2.29
2026-06-22 00:15:04.730,-0.69,-0.03,-0.88,1.01
2026-06-22 00:15:04.731,-2.89,-0.49,-1.12,3.56
2026-06-22 00:15:04.732,-2.73,-0.12,2.52,1.75
2026-06-22 00:15:04.733,-1.1,1.38,1.24,1.24
2026-06-22 00:15:04.734,0.1,1.45,-0.86,4.51
2026-06-22 00:15:04.735,0.41,-0.19,-0.53,1.88
2026-06-22 00:15:04.736,1.68,0.04,0.71,1.59
2026-06-22 00:15:04.737,-0.34,0.28,0.72,0.67
2026-06-22 00:15:04.738,-1.08,0.45,-2.51,-1.32
2026-06-22 00:15:04.739,-0.04,0.62,0.29,-0.18
2026-06-22 00:15:04.740,-0.68,0.88,0.34,-2.59
2026-06-22 00:15:04.741,0.92,-0.63,0.48,0.49
2026-06-22 00:15:04.742,0.08,-2.93,1.74,0.92
2026-06-22 00:15:04.743,1.18,-0.74,-0.04,-0.88
2026-06-22 00:15:04.744,1.23,-0.62,2.18,-0.29
2026-06-22 00:15:04.745,-1.83,-1.26,3.63,-2.62
2026-06-22 00:15:04.746,-1.65,0.66,1.33,-2.35
2026-06-22 00:15:04.747,1.47,0.55,0.24,-2.46
2026-06-22 00:15:04.748,2.62,0.53,-3.03,2.12
2026-06-22 00:15:04.749,-1.59,-0.17,-2.66,2.16
2026-06-22 00:15:04.750,-0.82,-0.27,-0.59,-0.79
2026-06-22 00:15:04.751,0.1,0.63,-0.47,1.72
2026-06-22 00:15:04.752,-0.16,1.39,-0.77,-3.38
2026-06-22 00:15:04.753,1.53,0.54,-2.19,-4.05
2026-06-22 00:15:04.754,-0.69,-0.12,-0.21,0.78
2026-06-22 00:15:04.755,-1.15,0.37,1.71,-1.02
2026-06-22 00:15:04.756,0.17,-0.17,1.05,0.39
2026-06-22 00:15:04.757,-0.5,0.31,-0.71,1.7
2026-06-22 00:15:04.758,-0.33,0.41,-0.98,1.48
2026-06-22 00:15:04.759,0.74,-0.56,-0.04,-0.35
2026-06-22 00:15:04.760,1,0.26,1.8,-2.56
2026-06-22 00:15:04.761,0.93,0.08,1.21,-1.52
2026-06-22 00:15:04.762,0.25,-1.44,0.68,-0.6
2026-06-22 00:15:04.763,-2.54,-0.77,0.7,1.42
2026-06-22 00:15:04.764,-0.86,-0.02,1.18,2.91
2026-06-22 00:15:04.765,1.62,-0.75,0.18,1.89
2026-06-22 00:15:04.766,-1.16,-0.04,-1.55,1.26
2026-06-22 00:15:04.767,1.43,0.83,-0.13,-1.06
2026-06-22 00:15:04.768,-0.38,0,0.31,-2.24
2026-06-22 00:15:04.769,-1.42,0.14,-0.15,-2.59
2026-06-22 00:15:04.770,0.43,-0.01,-0.19,-2.33
2026-06-22 00:15:04.771,-1.19,-0.53,-0.06,0.73
2026-06-22 00:15:04.772,0.25,0.05,-0.51,0.57
2026-06-22 00:15:04.773,-0.5,0.25,-1.54,-0.59
2026-06-22 00:15:04.774,-1.97,0.14,-0.53,-1.6
2026-06-22 00:15:04.775,1.13,0.13,0.03,-0.31
2026-06-22 00:15:04.776,3.72,0.21,-0.32,0.74
2026-06-22 00:15:04.777,1.36,-0.03,-0.04,-0.23
2026-06-22 00:15:04.778,1.49,0.26,-0.12,0.6
2026-06-22 00:15:04.778,5.12,0.64,-0.1,0.23
2026-06-22 00:15:04.779,0.35,0.26,0.01,0.45
2026-06-22 00:15:04.780,-2.78,-0.13,-0.19,5.5
2026-06-22 00:15:04.781,-1.27,-1.44,0.02,3.99
2026-06-22 00:15:04.782,-2.18,-0.68,0.53,-1.88
2026-06-22 00:15:04.783,0.49,-0.02,-0.18,-2.66
2026-06-22 00:15:04.784,-1.66,-1.22,-0.24,-2.42
2026-06-22 00:15:04.785,-1.56,0.05,0.29,-1.8
2026-06-22 00:15:04.786,-0.04,0.41,-0.18,-1.51
2026-06-22 00:15:04.787,-0.72,-0.47,-0.78,-0.04
2026-06-22 00:15:04.788,1.06,0.45,-0.1,0.24
2026-06-22 00:15:04.789,-0.5,0.56,0.66,-0.7
2026-06-22 00:15:04.790,-2.22,0.55,-0.02,-0.03
2026-06-22 00:15:04.791,-2.24,1.63,-0.02,-0.01
2026-06-22 00:15:04.792,-2.24,0.53,0.01,0.16
2026-06-22 00:15:04.793,0.06,-0.45,-0.51,0.47
2026-06-22 00:15:04.794,-2.57,-0.33,0.13,-0.27
2026-06-22 00:15:04.795,0.35,-0.31,-0.22,1.78
2026-06-22 00:15:04.796,4.17,0.54,0.34,4.95
2026-06-22 00:15:04.797,3.02,0.37,-0.04,3.89
2026-06-22 00:15:04.798,4.16,-0.05,-1.11,1.49
2026-06-22 00:15:04.799,1.26,0.14,0.17,-0.27
2026-06-22 00:15:04.800,0.63,-0.68,0.34,-3.09
2026-06-22 00:15:04.801,1.01,0.86,-0.45,-2.47
2026-06-22 00:15:04.802,-0.52,0.15,0.09,-1.76
2026-06-22 00:15:04.803,-0.46,-1.52,0.31,-1.3
2026-06-22 00:15:04.804,0.25,0.31,-0.18,1.08
2026-06-22 00:15:04.805,-2.4,-0.97,0.16,0.53
2026-06-22 00:15:04.806,-1.66,-0.89,0.34,0.22
2026-06-22 00:15:04.807,1.76,0.28,-0.06,1.57
2026-06-22 00:15:04.808,-0.9,-1.67,-0.65,0.35
2026-06-22 00:15:04.809,-1.49,-0.53,-0.3,-2.12
2026-06-22 00:15:04.810,2.26,1.33,-0.76,-2.48
2026-06-22 00:15:04.811,0.17,0.36,0.36,-2.88
2026-06-22 00:15:04.812,-0.43,1.02,2.48,-1.95
2026-06-22 00:15:04.813,-1.66,1.13,0.97,1.82
2026-06-22 00:15:04.814,-1.64,0.73,-1.21,2.36
2026-06-22 00:15:04.815,0.41,0.32,-0.79,0.11
2026-06-22 00:15:04.816,0.54,-0.4,-0.14,-0.7
2026-06-22 00:15:04.817,0.95,-0.45,0.77,-0.15
2026-06-22 00:15:04.818,-1.39,0.09,-0.06,-0.8
2026-06-22 00:15:04.819,0,0.34,-0.83,-0.39
2026-06-22 00:15:04.820,0.44,-0.12,0.74,2.1
2026-06-22 00:15:04.821,-1.14,-0.5,0.58,0.82
2026-06-22 00:15:04.822,0.81,-0.19,-0.06,-0.52
2026-06-22 00:15:04.823,2.02,0.26,-0.51,0.5
2026-06-22 00:15:04.824,0.45,-0.12,-0.18,2.45
2026-06-22 00:15:04.825,1.12,0.28,-0.84,0.37
2026-06-22 00:15:04.826,1.55,-0.85,-0.34,-1.64
2026-06-22 00:15:04.827,1.04,-1.23,-0.34,0.62
2026-06-22 00:15:04.832,-1.4,0.07,-0.62,1.33
2026-06-22 00:15:04.833,-2.19,0.33,-0.4,1.33
2026-06-22 00:15:04.834,-1.2,0.33,-1.09,1.15
2026-06-22 00:15:04.835,-1.53,0.19,1.59,-0.31
2026-06-22 00:15:04.836,0.8,0.61,2.3,-0.37
2026-06-22 00:15:04.837,-0.32,0.86,-1.06,-1.46
2026-06-22 00:15:04.838,-0.27,0.01,-0.28,-2.57
2026-06-22 00:15:04.839,0.95,0.07,-0.04,-0.49
2026-06-22 00:15:04.840,-0.13,0.02,-0.05,-2.69
2026-06-22 00:15:04.841,1.14,1.07,0.86,-5.44
2026-06-22 00:15:04.842,-0.69,0.7,0.21,-2.9
2026-06-22 00:15:04.843,-1.53,-1.08,0.18,-1.47
2026-06-22 00:15:04.844,0.79,0.78,0.38,1.06
2026-06-22 00:15:04.845,-2.25,-0.31,1.94,5.71
2026-06-22 00:15:04.846,-0.67,-0.43,-0.49,4.06
2026-06-22 00:15:04.847,3.71,0.38,0.69,2.94
2026-06-22 00:15:04.848,0.09,-1.93,3.45,3.15
2026-06-22 00:15:04.849,1.08,-0.16,-0.06,3.2
2026-06-22 00:15:04.850,4.1,1.19,-1.13,4.32
2026-06-22 00:15:04.851,1.38,0.24,-0.44,0.43
2026-06-22 00:15:04.852,1.56,-0.62,-0.67,-4.58
2026-06-22 00:15:04.853,1.23,-2.11,0.01,-3.8
2026-06-22 00:15:04.854,-1.18,-0.69,-0.37,-2.54
2026-06-22 00:15:04.855,-1.14,1.03,-0.16,-2.49
2026-06-22 00:15:04.856,-1.59,0.87,-0.28,-1.48
2026-06-22 00:15:04.857,-1.57,0.76,-1,-0.81
2026-06-22 00:15:04.858,-0.56,-0.05,-0.3,0.26
2026-06-22 00:15:04.859,-0.13,-0.34,0.61,2.2
2026-06-22 00:15:04.860,-1.44,0.65,1.17,2.7
2026-06-22 00:15:04.861,-1.56,0.91,0.64,-0.58
2026-06-22 00:15:04.862,0.59,0.59,0.94,-0.31
2026-06-22 00:15:04.863,0.24,-0.21,0.56,1.31
2026-06-22 00:15:04.864,1.03,-1.13,-1.04,-1.09
2026-06-22 00:15:04.865,0.3,-0.35,0.48,-0.38
2026-06-22 00:15:04.866,-1.83,0.23,2.36,0.14
2026-06-22 00:15:04.867,-1.2,-0.36,1.83,-0.2
2026-06-22 00:15:04.868,-0.9,0,1.87,0.64
2026-06-22 00:15:04.869,0.51,-0.39,0.43,-0.94
2026-06-22 00:15:04.870,0.02,-0.16,-0.88,-0.14
2026-06-22 00:15:04.871,-1.15,0.41,0.55,-1.14
2026-06-22 00:15:04.872,1.51,-0.36,-0.59,-0.7
2026-06-22 00:15:04.873,0.75,-0.3,-1.67,1.01
2026-06-22 00:15:04.874,0.28,0.18,-0.3,0.1
2026-06-22 00:15:04.875,3.62,-0.25,1.74,-0.62
2026-06-22 00:15:04.876,2.56,0.02,2.62,-0.24
2026-06-22 00:15:04.877,0.39,2.17,-0.69,0.27
2026-06-22 00:15:04.878,1.59,1.47,-0.81,1.63
2026-06-22 00:15:04.879,-0.2,-0.99,-0.58,1.17
2026-06-22 00:15:04.880,-1.59,-0.89,-1.01,0.21
2026-06-22 00:15:04.881,2.08,-0.34,-1.12,1.42
2026-06-22 00:15:04.879,0.18,-0.66,-0.84,0.24
2026-06-22 00:15:04.880,-1.75,-0.51,0.26,2.8
2026-06-22 00:15:04.881,-0.05,-0.43,-1.14,4.49
2026-06-22 00:15:04.882,-2.74,-0.65,1.26,-1.66
2026-06-22 00:15:04.883,-0.87,-0.17,1.17,-4.28
2026-06-22 00:15:04.884,1.23,1.76,-1.86,-0.98
2026-06-22 00:15:04.885,-0.2,0.75,-0.17,0.16
2026-06-22 00:15:04.886,-0.55,-0.36,0.12,-0.4
2026-06-22 00:15:04.887,-1.46,0.05,-0.9,-3.36
2026-06-22 00:15:04.888,-1.62,-0.09,-1.71,-3.12
2026-06-22 00:15:04.889,-2.09,0.26,-2.01,-0.56
2026-06-22 00:15:04.890,-1.19,0.03,-0.57,-0.42
2026-06-22 00:15:04.891,0.45,1.42,0.36,-1.82
2026-06-22 00:15:04.892,-0.17,-0.09,0.66,-0.96
2026-06-22 00:15:04.893,-2.5,-2.33,0.51,1.44
2026-06-22 00:15:04.894,0.09,-0.99,3.22,2.64
2026-06-22 00:15:04.895,2.68,-0.66,0.49,1.31
2026-06-22 00:15:04.896,2.03,-0.11,-1.44,0.07
2026-06-22 00:15:04.897,1.72,0.64,-0.36,0.23
2026-06-22 00:15:04.898,0.48,-0.03,-1.99,0.04
2026-06-22 00:15:04.899,-0.67,0.38,-2.57,0.84
2026-06-22 00:15:04.900,0.57,-0.04,-1.88,0.01
2026-06-22 00:15:04.901,1.04,0.24,0.11,-1.66
2026-06-22 00:15:04.902,-0.05,-0.08,-0.36,-0.71
2026-06-22 00:15:04.903,1.02,0.21,-0.3,1.55
2026-06-22 00:15:04.904,0.95,0.73,-0.58,3.52
2026-06-22 00:15:04.905,0.11,0.13,-0.77,3.44
2026-06-22 00:15:04.906,-0.16,0.95,-2.37,0.6
2026-06-22 00:15:04.907,-2.02,0.7,-2.2,0.16
2026-06-22 00:15:04.908,-1.63,-0.33,1.77,-2.51
2026-06-22 00:15:04.909,-0.15,0.5,3.26,-0.35
2026-06-22 00:15:04.910,-0.51,0.63,1.62,3.15
2026-06-22 00:15:04.911,0.3,-0.47,-0.12,-2.19
2026-06-22 00:15:04.912,-2.04,-1.77,-0.62,-2.56
2026-06-22 00:15:04.913,-3.75,-1.47,-1.82,-0.89
2026-06-22 00:15:04.914,-0.95,0.5,-1.1,-1.82
2026-06-22 00:15:04.915,0.49,-0.23,-0.14,0.3
2026-06-22 00:15:04.916,0.15,0.43,-1.9,0.01
2026-06-22 00:15:04.917,0.07,0.94,-0.32,-0.02
2026-06-22 00:15:04.918,0.36,0.32,0.7,-0.1
2026-06-22 00:15:04.919,2.32,0.8,-1.02,-0.31
2026-06-22 00:15:04.920,1.25,0.03,-1.78,0.49
2026-06-22 00:15:04.921,-0.18,-1.45,-1,-1.52
2026-06-22 00:15:04.922,1.48,-1.91,1.26,-1.25
2026-06-22 00:15:04.923,-0.61,-1.24,1.1,1.28
2026-06-22 00:15:04.924,-0.39,-1.47,1.28,1.7
2026-06-22 00:15:04.925,1.94,-1.88,0.4,0.31
2026-06-22 00:15:04.926,1.1,-0.93,-0.11,-0.21
2026-06-22 00:15:04.927,-0.45,-2.06,0.29,0.26
2026-06-22 00:15:04.928,0.73,-1.73,-1.55,-0.59
2026-06-22 00:15:04.933,3.93,-1.79,-0.56,-3
2026-06-22 00:15:04.934,-0.66,-2.5,0.9,-2.58
2026-06-22 00:15:04.935,-4.29,0.16,-2.45,-0.06
2026-06-22 00:15:04.936,-1.38,3.82,-6.33,0.11
2026-06-22 00:15:04.937,0.15,6.47,-5.99,1.29
2026-06-22 00:15:04.938,-0.27,6.27,-4.98,3.65
2026-06-22 00:15:04.939,-1.28,7.05,2.03,5.12
2026-06-22 00:15:04.940,-0.72,2.39,12.64,3.52
2026-06-22 00:15:04.941,1.07,-2.19,11.68,-0.01
2026-06-22 00:15:04.942,1.17,-0.24,3.42,-1.81
2026-06-22 00:15:04.943,-1.62,-0.53,-1.72,-3.58
2026-06-22 00:15:04.944,-1.83,-0.67,-1.6,-3.72
2026-06-22 00:15:04.945,-1.45,-0.87,-1.19,-0.71
2026-06-22 00:15:04.946,-2.85,2.37,-1.74,0.64
2026-06-22 00:15:04.947,2.22,0.02,0.21,-0.86
2026-06-22 00:15:04.948,5.15,-6.04,0.13,-2.31
2026-06-22 00:15:04.949,3.54,-2.89,-1.71,-2.42
2026-06-22 00:15:04.950,1.87,-1.84,-2.42,0.3
2026-06-22 00:15:04.951,-1.91,-2.91,-1.38,0.17
2026-06-22 00:15:04.952,-0.29,-2.32,0.82,-0.32
2026-06-22 00:15:04.953,1.34,-2.4,-2.27,0.62
2026-06-22 00:15:04.954,1.21,-0.63,0.38,2.09
2026-06-22 00:15:04.955,0.6,1.08,3.88,3.04
2026-06-22 00:15:04.956,-0.74,1.95,-0.23,1.14
2026-06-22 00:15:04.957,0.25,1.78,-0.69,-0.7
2026-06-22 00:15:04.958,1.39,2.26,-0.34,-0.61
2026-06-22 00:15:04.959,1.08,1.36,-0.73,-1.46
2026-06-22 00:15:04.960,0.21,0.46,1.35,-1.38
2026-06-22 00:15:04.961,-0.27,-0.06,-0.9,-0.17
2026-06-22 00:15:04.962,-0.18,-0.48,-4.26,1.21
2026-06-22 00:15:04.963,-1.75,0.95,-2.75,2.5
2026-06-22 00:15:04.964,-2.22,0.78,-4.64,1.57
2026-06-22 00:15:04.965,-1.75,0.52,-1.35,0.32
2026-06-22 00:15:04.966,-0.1,0.25,6.2,0.57
2026-06-22 00:15:04.967,0.53,0.24,7.62,0.49
2026-06-22 00:15:04.968,-3.18,-0.39,3.95,-1.17
2026-06-22 00:15:04.969,-2.98,0.1,-0.05,0.06
2026-06-22 00:15:04.970,1.01,2.25,-1.12,-0.8
2026-06-22 00:15:04.971,3.18,1.54,-1.55,-1.84
2026-06-22 00:15:04.972,3.01,0.41,-2.66,-3.12
2026-06-22 00:15:04.973,2.87,0.63,-1.49,-3.13
2026-06-22 00:15:04.974,2.14,0.34,-0.41,-0.76
2026-06-22 00:15:04.975,1.98,-0.14,-1.25,0.72
2026-06-22 00:15:04.976,-0.86,-1.24,-0.72,0.79
2026-06-22 00:15:04.977,-3.67,-0.01,0.28,0.18
2026-06-22 00:15:04.978,-1.98,-1.29,-3.06,0.78
2026-06-22 00:15:04.979,-1.35,-3.19,-4.94,1.81
2026-06-22 00:15:04.980,-1.36,-1.21,-2.55,1.57
2026-06-22 00:15:04.981,-0.78,-1.84,-0.24,1.89
2026-06-22 00:15:04.982,0.68,-1.67,2.16,1.49
2026-06-22 00:15:04.979,3.21,1.69,1.23,-1.16
2026-06-22 00:15:04.980,1.54,0.84,0.56,-0.92
2026-06-22 00:15:04.981,0.42,-0.07,-1.49,1.54
2026-06-22 00:15:04.982,-0.33,-0.82,-2.25,1.33
2026-06-22 00:15:04.983,-3.31,-0.89,-1.99,1.51
2026-06-22 00:15:04.984,-2.14,0.83,-0.16,2.72
2026-06-22 00:15:04.985,-0.87,-1.01,2.27,1.72
2026-06-22 00:15:04.986,0.09,-0.42,-0.67,-0.53
2026-06-22 00:15:04.987,0.46,-1.29,2.22,-1.98
2026-06-22 00:15:04.988,-0.14,0.09,4.35,-1.27
2026-06-22 00:15:04.989,-0.66,5.23,-0.1,-1.04
2026-06-22 00:15:04.990,-0.39,2.57,-0.53,-1.13
2026-06-22 00:15:04.991,-0.98,1.4,0.54,-1.15
2026-06-22 00:15:04.992,-3.12,3.24,0.01,-0.2
2026-06-22 00:15:04.993,-1.93,0.87,-0.24,-1.58
2026-06-22 00:15:04.994,-1.3,-1.32,2.5,0
2026-06-22 00:15:04.995,-0.33,-4.12,2.31,1.01
2026-06-22 00:15:04.996,1.4,-4.24,0.42,0
2026-06-22 00:15:04.997,1.15,-2.26,-0.35,1.61
2026-06-22 00:15:04.998,-0.42,-3.27,-2.02,0.25
2026-06-22 00:15:04.999,-0.66,-2.25,0.8,-1.24
2026-06-22 00:15:05.000,0.43,0,2.13,-0.53
2026-06-22 00:15:05.001,-1.93,0.76,-1.15,-0.79
2026-06-22 00:15:05.002,-1.54,0.89,-2.06,-0.36
2026-06-22 00:15:05.003,0.65,1.15,-0.43,-0.41
2026-06-22 00:15:05.004,-0.44,1.11,0.93,-0.77
2026-06-22 00:15:05.005,1.31,0.86,0.67,1.54
2026-06-22 00:15:05.006,1.1,1.46,3.88,3.94
2026-06-22 00:15:05.007,-0.77,0.72,4.34,2.55
2026-06-22 00:15:05.008,-1.37,0.24,-0.48,1.2
2026-06-22 00:15:05.009,-1.91,-0.01,-0.34,0.98
2026-06-22 00:15:05.010,-1.23,-3.01,1.45,-1.39
2026-06-22 00:15:05.011,-0.59,-1.12,1.29,-1.34
2026-06-22 00:15:05.012,-0.01,1.48,-0.11,-0.96
2026-06-22 00:15:05.013,-0.01,0.97,-0.52,-1.38
2026-06-22 00:15:05.014,-0.06,3.71,-0.98,-1.53
2026-06-22 00:15:05.015,0.67,3.47,-0.9,-0.78
2026-06-22 00:15:05.016,0.99,0.67,-1.31,-1.62
2026-06-22 00:15:05.017,-0.17,-1.48,0.19,-1.79
2026-06-22 00:15:05.018,1.6,-1.57,3.92,-0.32
2026-06-22 00:15:05.019,2.2,0.12,4.34,1.16
2026-06-22 00:15:05.020,0.59,0.36,-1.62,2.67
2026-06-22 00:15:05.021,0.88,0.1,-2.92,2.55
2026-06-22 00:15:05.022,-0.73,-2.08,0.78,0.22
2026-06-22 00:15:05.023,-1,-2.3,0.8,-2.36
2026-06-22 00:15:05.024,-0.02,0.46,2.52,-1.23
2026-06-22 00:15:05.025,-0.5,0.2,1.47,-0.96
2026-06-22 00:15:05.026,0.61,-1.9,-1.38,-1.81
2026-06-22 00:15:05.027,1.3,0.3,3.22,1.4
2026-06-22 00:15:05.028,2.9,1.37,2.98,2.07
2026-06-22 00:15:05.033,2.85,-1.3,-3.49,-0.08
2026-06-22 00:15:05.034,1.23,-0.97,0.46,2.06
2026-06-22 00:15:05.035,-0.52,-0.65,1.5,1.36
2026-06-22 00:15:05.036,-2.18,0.18,-4.31,-0.2
2026-06-22 00:15:05.037,0.12,3.12,-1.56,-0.42
2026-06-22 00:15:05.038,2.13,2.59,0.83,-1.99
2026-06-22 00:15:05.039,0.58,1.51,-1.68,-2.04
2026-06-22 00:15:05.040,1.63,2.55,-0.01,-0.08
2026-06-22 00:15:05.041,-0.25,1.5,0.55,1.19
2026-06-22 00:15:05.042,-3.04,1.92,-0.32,0.97
2026-06-22 00:15:05.043,-1.19,1.48,0.62,-0.33
2026-06-22 00:15:05.044,0.39,0.52,0.42,-0.26
2026-06-22 00:15:05.045,1.04,0.09,0.1,0.64
2026-06-22 00:15:05.046,-1.64,-1.19,0.71,-1.38
2026-06-22 00:15:05.047,-1.65,0.64,1.17,-2.26
2026-06-22 00:15:05.048,-0.09,0.18,1.32,0.14
2026-06-22 00:15:05.049,0.87,-2.84,1.45,1.06
2026-06-22 00:15:05.050,2.51,-3.43,0.46,-0.42
2026-06-22 00:15:05.051,2.88,-3.45,-2.3,-1.31
2026-06-22 00:15:05.052,1.39,-0.22,-1.04,-1.73
2026-06-22 00:15:05.053,0.59,1.12,-0.54,-2.24
2026-06-22 00:15:05.054,2.38,1.42,-3.56,-3.11
2026-06-22 00:15:05.055,3.04,2.21,-2.37,0.01
2026-06-22 00:15:05.056,-0.3,0.46,-1.03,3.3
2026-06-22 00:15:05.057,-0.81,0.28,-0.64,4.74
2026-06-22 00:15:05.058,-0.62,-0.04,-1.05,1.67
2026-06-22 00:15:05.059,-0.1,1.71,-0.36,1.7
2026-06-22 00:15:05.060,-0.14,0.73,-0.18,5.09
2026-06-22 00:15:05.061,0.85,0,-1.81,1.71
2026-06-22 00:15:05.062,1.08,-1.84,2.07,0.42
2026-06-22 00:15:05.063,0.49,-5.44,-0.79,-2.62
2026-06-22 00:15:05.064,0.86,-2.44,-0.61,-5.73
2026-06-22 00:15:05.065,-0.63,-0.21,3.15,-0.97
2026-06-22 00:15:05.066,0.17,-1.12,-3.22,3.6
2026-06-22 00:15:05.067,-1.93,-1.65,-1.79,1.89
2026-06-22 00:15:05.068,-4.51,1.13,1.31,-0.07
2026-06-22 00:15:05.069,-1.45,4.37,3.01,-1.44
2026-06-22 00:15:05.070,-0.58,1.79,4.79,-2.49
2026-06-22 00:15:05.071,-1.47,0.8,0.85,-2.11
2026-06-22 00:15:05.072,0.9,-0.16,-1,-1.33
2026-06-22 00:15:05.073,-0.86,4.5,-1.12,-1.28
2026-06-22 00:15:05.074,1.25,5.06,-2.69,-2.02
2026-06-22 00:15:05.075,3.03,-1.99,-1.73,-0.78
2026-06-22 00:15:05.076,0.85,-3.5,2.08,2.1
2026-06-22 00:15:05.077,1.21,-4.43,3.9,1.51
2026-06-22 00:15:05.078,0.97,-1.01,2.24,1.85
2026-06-22 00:15:05.079,0.78,-0.35,-0.7,0.81
2026-06-22 00:15:05.080,0.22,1.73,-4.14,-0.52
2026-06-22 00:15:05.081,0.53,6.99,-3.32,0.8
2026-06-22 00:15:05.082,0.29,4.85,-1.8,-0.68
2026-06-22 00:15:05.078,-4.2,-3.44,-0.11,2
2026-06-22 00:15:05.079,-4.21,-7.78,2.74,1.16
2026-06-22 00:15:05.080,-5.77,-6.34,0.51,-1.28
2026-06-22 00:15:05.081,-7.87,-5.9,1.11,-0.91
2026-06-22 00:15:05.082,-0.43,0.48,2.58,-0.69
2026-06-22 00:15:05.083,2.26,6.75,2.63,-1.11
2026-06-22 00:15:05.084,2.72,0.73,3.29,-0.15
2026-06-22 00:15:05.085,5.11,-0.75,0.55,1.32
2026-06-22 00:15:05.086,3.94,-0.31,-2.2,0.23
2026-06-22 00:15:05.087,2.08,-0.51,-0.06,0.12
2026-06-22 00:15:05.088,1.2,1.02,-0.75,1.34
2026-06-22 00:15:05.089,-2.57,1.42,-0.52,-0.27
2026-06-22 00:15:05.090,-2.15,2.3,-0.22,-0.52
2026-06-22 00:15:05.091,-1.72,0.04,-1.06,2.51
2026-06-22 00:15:05.092,-3.94,-0.49,3.17,0.76
2026-06-22 00:15:05.093,1.1,0.1,2.19,-0.19
2026-06-22 00:15:05.094,0.92,0.4,5.79,0.58
2026-06-22 00:15:05.095,-3.44,0.09,7.44,-1.73
2026-06-22 00:15:05.096,0.37,-1.56,-8.99,-0.64
2026-06-22 00:15:05.097,4.42,-1.57,-15.13,1.88
2026-06-22 00:15:05.098,4.34,1.05,-5.34,0.75
2026-06-22 00:15:05.099,2.45,1.4,-0.79,-0.87
2026-06-22 00:15:05.100,0.59,-0.26,0.01,0.58
2026-06-22 00:15:05.101,1.36,-1.25,-1.46,2.15
2026-06-22 00:15:05.102,-1.56,-0.63,-0.54,-0.55
2026-06-22 00:15:05.103,-1.98,0.98,-0.07,1.83
2026-06-22 00:15:05.104,-0.61,1.67,1.34,2.67
2026-06-22 00:15:05.105,-1.36,-0.79,2.78,1.99
2026-06-22 00:15:05.106,-2.04,-0.47,-1.84,2.78
2026-06-22 00:15:05.107,-2.57,1.44,-2.11,1.14
2026-06-22 00:15:05.108,0.01,-0.25,-2.93,4.24
2026-06-22 00:15:05.109,-0.68,-1.72,0.34,-0.44
2026-06-22 00:15:05.110,-3.83,-0.28,14.53,-10.38
2026-06-22 00:15:05.111,-2.76,1.5,11.89,-11.29
2026-06-22 00:15:05.112,-2.53,0.14,8.85,-10.82
2026-06-22 00:15:05.113,0.66,-0.88,11.02,-7.2
2026-06-22 00:15:05.114,1.73,-1.43,-6.12,-1.63
2026-06-22 00:15:05.115,-0.68,-1.87,-14.7,-2.21
2026-06-22 00:15:05.116,3.15,-0.66,-6.35,-0.63
2026-06-22 00:15:05.117,4.91,-0.01,1.49,4.97
2026-06-22 00:15:05.118,3.63,0.28,2.21,6.88
2026-06-22 00:15:05.119,1.81,0.11,-2.95,7.96
2026-06-22 00:15:05.120,0.41,0.77,-5.68,7.54
2026-06-22 00:15:05.121,1.35,1.99,-5.57,6.1
2026-06-22 00:15:05.122,-0.51,0.81,-4.07,5.04
2026-06-22 00:15:05.123,-2.21,0.32,-0.7,2.22
2026-06-22 00:15:05.124,-0.58,1.2,0.53,-0.85
2026-06-22 00:15:05.125,0.72,0.6,-3.14,-4.71
2026-06-22 00:15:05.126,2.76,0.33,-3.79,-5.59
2026-06-22 00:15:05.127,-0.77,0.34,3.11,-2.99
2026-06-22 00:15:05.136,-5.4,-1.4,4.38,-1
2026-06-22 00:15:05.137,-0.26,-1.25,-0.19,-0.57
2026-06-22 00:15:05.138,3.66,-1.06,-0.93,-0.76
2026-06-22 00:15:05.139,-2.88,-2.17,2.99,1.12
2026-06-22 00:15:05.140,-3.34,-2.59,3.46,1.59
2026-06-22 00:15:05.141,0.62,-0.23,3.52,-0.24
2026-06-22 00:15:05.142,-0.98,3.74,0.71,-0.8
2026-06-22 00:15:05.143,-0.28,2.88,-0.42,0.1
2026-06-22 00:15:05.144,-0.75,-1.02,3.23,-0.67
2026-06-22 00:15:05.145,-1.16,-0.51,1.83,-3.52
2026-06-22 00:15:05.146,1.18,0.6,0.85,-2.64
2026-06-22 00:15:05.147,-1.92,0.14,3.2,-0.07
2026-06-22 00:15:05.148,1.39,0.12,5.06,2.06
2026-06-22 00:15:05.149,3.07,-1.71,2.31,0.15
2026-06-22 00:15:05.150,-1.54,-0.79,2.24,0.58
2026-06-22 00:15:05.151,2.79,-0.31,3.2,3.71
2026-06-22 00:15:05.152,4.56,-3.48,-0.22,0.33
2026-06-22 00:15:05.153,2.14,-0.75,-0.9,-1.84
2026-06-22 00:15:05.154,1.77,1.56,-2.85,-0.39
2026-06-22 00:15:05.155,0.48,-0.13,-4.9,-2.01
2026-06-22 00:15:05.156,-0.14,0.89,-1.68,-2.06
2026-06-22 00:15:05.157,0.52,1.01,-4.69,-1
2026-06-22 00:15:05.158,-1.27,0.17,-8.02,-0.9
2026-06-22 00:15:05.159,-0.97,-0.48,-8.36,-1.04
2026-06-22 00:15:05.160,-0.89,0.88,-8.38,0.89
2026-06-22 00:15:05.161,-3.52,1.73,-3.41,1.07
2026-06-22 00:15:05.162,-4.31,0.57,3.09,-2.17
2026-06-22 00:15:05.163,-3.31,-1.05,3.51,1.9
2026-06-22 00:15:05.164,-0.37,-1.54,5.42,3.41
2026-06-22 00:15:05.165,-0.19,-0.71,4.72,2.2
2026-06-22 00:15:05.166,-1.97,1.13,1.79,4.94
2026-06-22 00:15:05.167,0.82,2.13,7.67,2.1
2026-06-22 00:15:05.168,2.7,0.7,5.99,-2.25
2026-06-22 00:15:05.169,2.17,0.57,-0.82,-2.93
2026-06-22 00:15:05.170,1.71,2.14,-5.99,-1.3
2026-06-22 00:15:05.171,2.23,1.71,-7.08,-0.82
2026-06-22 00:15:05.172,1.55,-0.82,-0.77,-0.56
2026-06-22 00:15:05.173,1,-0.89,0.25,1.4
2026-06-22 00:15:05.174,0.69,-0.46,0.03,1.12
2026-06-22 00:15:05.175,1.45,-0.27,1.61,1.64
2026-06-22 00:15:05.176,1.65,-1.68,-2.56,0.52
2026-06-22 00:15:05.177,0.05,-2.48,1.26,-0.27
2026-06-22 00:15:05.178,0.64,0.31,6.91,0.43
2026-06-22 00:15:05.179,-0.01,0.47,5.47,-0.74
2026-06-22 00:15:05.180,-1.76,0.7,5.21,1.39
2026-06-22 00:15:05.181,-2.58,2.15,7.69,2.42
2026-06-22 00:15:05.182,-2.5,0.67,4.84,1.13
2026-06-22 00:15:05.183,-0.22,0.82,-8.35,-0.13
2026-06-22 00:15:05.184,1.37,0.19,-14.24,-3.78
2026-06-22 00:15:05.185,-0.9,-1.11,-10.02,-5.1
2026-06-22 00:15:05.178,-4.59,-0.37,-5.83,-0.45
2026-06-22 00:15:05.179,-6.25,-1.43,-4.49,1.61
2026-06-22 00:15:05.180,-3.71,-2.39,-1.36,-1.81
2026-06-22 00:15:05.181,0.48,0.12,3.18,-0.27
2026-06-22 00:15:05.182,3.4,0.42,4.71,1.28
2026-06-22 00:15:05.183,3.37,-1.27,7.21,-1.28
2026-06-22 00:15:05.184,4.04,0.45,3.87,-0.33
2026-06-22 00:15:05.185,4.63,1.23,-4.87,-1.82
2026-06-22 00:15:05.186,4.04,0.92,-3.83,-2.85
2026-06-22 00:15:05.187,1.01,-0.33,0.1,0.14
2026-06-22 00:15:05.188,0.13,-0.07,0.76,1.27
2026-06-22 00:15:05.189,2.19,0.39,-0.18,3.36
2026-06-22 00:15:05.190,0.16,2.85,0.73,2.61
2026-06-22 00:15:05.191,-0.57,5.14,4.24,3.02
2026-06-22 00:15:05.192,0.87,0.38,3.27,3.43
2026-06-22 00:15:05.193,-0.52,0.79,4.33,-1.42
2026-06-22 00:15:05.194,-1.42,-1.33,3.53,-1.47
2026-06-22 00:15:05.195,0.04,-6.96,-0.13,0.95
2026-06-22 00:15:05.196,0.26,-4.66,-0.57,-0.95
2026-06-22 00:15:05.197,-1.93,-2.61,-2.44,-2.26
2026-06-22 00:15:05.198,-0.34,-1.83,-1.23,-0.95
2026-06-22 00:15:05.199,1.57,-2.86,3.17,0.84
2026-06-22 00:15:05.200,-2.83,-1.96,0.77,0.86
2026-06-22 00:15:05.201,-4.18,0.07,0.31,0.03
2026-06-22 00:15:05.202,-2.67,-1.06,0.51,-0.61
2026-06-22 00:15:05.203,-1.14,-2.06,-4.6,-0.62
2026-06-22 00:15:05.204,2.27,-0.86,-4.76,-1.62
2026-06-22 00:15:05.205,-0.97,5.41,-3.67,-2.72
2026-06-22 00:15:05.206,-2.53,11.64,-3,-0.61
2026-06-22 00:15:05.207,2.37,12.22,0.97,4.1
2026-06-22 00:15:05.208,2.84,12.66,2.98,4.81
2026-06-22 00:15:05.209,1.93,10.72,2.47,-1.05
2026-06-22 00:15:05.210,1.58,-1.64,1.81,-1.67
2026-06-22 00:15:05.211,2.32,-12.31,0.88,-0.08
2026-06-22 00:15:05.212,0.5,-11.57,1.02,-2.69
2026-06-22 00:15:05.213,-3.09,-9.96,1.07,-3.03
2026-06-22 00:15:05.214,-4.28,-5.84,0.59,-0.74
2026-06-22 00:15:05.215,-3.96,-0.78,0.7,-0.65
2026-06-22 00:15:05.216,0.55,0.06,0.4,-1.87
2026-06-22 00:15:05.217,3.91,1.5,0.53,-1.71
2026-06-22 00:15:05.218,4.2,0.74,0.33,1.18
2026-06-22 00:15:05.219,4.17,0.75,-0.42,2.67
2026-06-22 00:15:05.220,1.66,2.57,-0.47,1.23
2026-06-22 00:15:05.221,0.47,3.52,0.15,1.61
2026-06-22 00:15:05.222,-0.05,3.49,0.27,3.77
2026-06-22 00:15:05.223,0.63,-0.61,-0.16,2.26
2026-06-22 00:15:05.224,1.36,-3.97,0.13,-2.47
2026-06-22 00:15:05.225,-1.56,-2.03,0.24,-1.62
2026-06-22 00:15:05.226,0.48,-3.66,-0.07,1.35
2026-06-22 00:15:05.227,0.96,-4.19,-0.93,1.79
2026-06-22 00:15:05.239,-5.69,-1.34,-2.79,-1.39
2026-06-22 00:15:05.240,-7.09,-2.87,-1.05,-2.07
2026-06-22 00:15:05.241,-7,-1.79,2.51,0.65
2026-06-22 00:15:05.242,-5.02,-1.75,2.17,-0.72
2026-06-22 00:15:05.243,2.16,-1.15,-0.67,0.77
2026-06-22 00:15:05.244,3.48,-1.03,-2.49,1.87
2026-06-22 00:15:05.245,2.16,-1.11,-2.02,-0.56
2026-06-22 00:15:05.246,-0.6,-0.11,-0.67,0.81
2026-06-22 00:15:05.247,-0.67,1.79,-0.01,-1.38
2026-06-22 00:15:05.248,2.14,7.44,-0.49,-3.01
2026-06-22 00:15:05.249,-0.23,13.2,-1.18,-1.42
2026-06-22 00:15:05.250,2.45,15.49,-0.36,-1.35
2026-06-22 00:15:05.251,3.17,12.13,0.75,-0.41
2026-06-22 00:15:05.252,-1.76,12.42,0.43,-2.39
2026-06-22 00:15:05.253,-3.05,-0.04,0.99,-0.76
2026-06-22 00:15:05.254,-5.48,-18.41,-0.62,2.06
2026-06-22 00:15:05.255,-2.66,-12.95,-2.99,0.26
2026-06-22 00:15:05.256,3.41,-7.51,-2.49,1.39
2026-06-22 00:15:05.257,3.77,-8.21,1.51,2.45
2026-06-22 00:15:05.258,3.6,-4.23,2.02,1.83
2026-06-22 00:15:05.259,1.66,-3.01,0.27,-0.23
2026-06-22 00:15:05.260,-1.95,0.34,1.26,-0.86
2026-06-22 00:15:05.261,-2.11,-0.74,-0.48,1.23
2026-06-22 00:15:05.262,0.4,0.79,-0.55,-1.52
2026-06-22 00:15:05.263,0.8,2.93,2.93,-0.78
2026-06-22 00:15:05.264,-0.53,1.13,0.74,-0.19
2026-06-22 00:15:05.265,-0.05,1.4,-1.01,-2.72
2026-06-22 00:15:05.266,0.02,0.48,1.16,1.53
2026-06-22 00:15:05.267,1.22,0.69,-0.84,2.99
2026-06-22 00:15:05.268,-0.19,-0.06,-3.17,-0.39
2026-06-22 00:15:05.269,-2.93,0.2,-0.46,0.97
2026-06-22 00:15:05.270,-1.59,1.32,0.85,2.43
2026-06-22 00:15:05.271,-1.66,0.72,0.08,-0.94
2026-06-22 00:15:05.272,-1.74,-0.05,0.68,-0.82
2026-06-22 00:15:05.273,-2.36,-1.77,0.33,0.97
2026-06-22 00:15:05.274,-0.95,-2.94,0.55,-0.18
2026-06-22 00:15:05.275,3.29,2.54,-0.61,0.67
2026-06-22 00:15:05.276,4.52,3.63,0.55,-1.69
2026-06-22 00:15:05.277,4.22,1.49,1.35,-3.62
2026-06-22 00:15:05.278,2.32,2.07,0.55,-0.17
2026-06-22 00:15:05.279,1.23,0.72,-1.52,0.34
2026-06-22 00:15:05.280,2.52,0.65,-3.65,-0.19
2026-06-22 00:15:05.281,2.48,0.16,-0.9,0.78
2026-06-22 00:15:05.282,-1.43,-0.15,-0.23,0.42
2026-06-22 00:15:05.283,-5.26,-2.48,-0.76,1.27
2026-06-22 00:15:05.284,-3.01,-3.8,0,1.78
2026-06-22 00:15:05.285,-0.35,-2.86,-0.64,-0.69
2026-06-22 00:15:05.286,2.84,0.36,0.6,1.87
2026-06-22 00:15:05.287,0.44,3.57,-0.71,2.82
2026-06-22 00:15:05.288,-2.33,0.05,-0.83,-0.38
2026-06-22 00:15:05.281,3.43,1.48,1.62,2.95
2026-06-22 00:15:05.282,2.44,3.74,0.87,-0.08
2026-06-22 00:15:05.283,-3.61,-2.57,1.88,-4.44
2026-06-22 00:15:05.284,-2.31,-1.87,-0.96,-0.55
2026-06-22 00:15:05.285,-1.41,2.06,-1.67,-2.16
2026-06-22 00:15:05.286,-2.21,-1.39,-0.46,-3.85
2026-06-22 00:15:05.287,-1.12,-4.41,0.04,-2.87
2026-06-22 00:15:05.288,-2.66,-3.19,3.81,-1.79
2026-06-22 00:15:05.289,-1.96,-1.54,3.55,0.29
2026-06-22 00:15:05.290,3.98,-0.94,0.39,-0.04
2026-06-22 00:15:05.291,6.31,-0.08,-1.07,1.21
2026-06-22 00:15:05.292,5.11,-1.49,0.45,3.21
2026-06-22 00:15:05.293,4.79,-0.52,-1.69,3.96
2026-06-22 00:15:05.294,1.29,4.12,-3.46,2.7
2026-06-22 00:15:05.295,-2.22,6.03,2.28,0.58
2026-06-22 00:15:05.296,-1.47,6.66,1.49,0.2
2026-06-22 00:15:05.297,-2.01,4.79,-0.81,-1.92
2026-06-22 00:15:05.298,-4.97,-1.21,1.39,-1.05
2026-06-22 00:15:05.299,0.22,-1.21,0.18,1.27
2026-06-22 00:15:05.300,2.51,0.39,1.67,0.97
2026-06-22 00:15:05.301,0.42,-0.25,1.8,0.84
2026-06-22 00:15:05.302,1.58,-1.7,1.34,-1.21
2026-06-22 00:15:05.303,-0.47,-4.14,-0.77,0.02
2026-06-22 00:15:05.304,-2.86,-1.68,-2.28,1.25
2026-06-22 00:15:05.305,-3.98,-2.73,-1.15,-0.82
2026-06-22 00:15:05.306,-3.17,-3.8,-5.78,-0.86
2026-06-22 00:15:05.307,-1.27,1.93,-5.62,-0.43
2026-06-22 00:15:05.308,-1.47,3.45,0.64,0.44
2026-06-22 00:15:05.309,-0.13,-0.86,1.13,-1.2
2026-06-22 00:15:05.310,2.25,-4.25,0.06,-1.3
2026-06-22 00:15:05.311,2.77,-4.03,0.12,0.27
2026-06-22 00:15:05.312,3.34,-0.33,-1.33,-0.87
2026-06-22 00:15:05.313,3.35,2,-0.03,-0.41
2026-06-22 00:15:05.314,2.03,2.42,-0.35,-0.84
2026-06-22 00:15:05.315,1.96,2.9,-0.83,0.84
2026-06-22 00:15:05.316,0.84,1.43,2.57,3.04
2026-06-22 00:15:05.317,-0.81,-0.15,2.37,1.29
2026-06-22 00:15:05.318,0.97,0.4,-0.52,-1.74
2026-06-22 00:15:05.319,1.3,0.87,1.24,-3.25
2026-06-22 00:15:05.320,-0.85,0.42,4.53,0.04
2026-06-22 00:15:05.321,-2.09,-0.29,7.25,0.59
2026-06-22 00:15:05.322,-2.31,-0.82,4.77,-0.48
2026-06-22 00:15:05.323,0.19,-0.4,2.38,1.09
2026-06-22 00:15:05.324,1.09,-0.04,1.87,0.24
2026-06-22 00:15:05.325,-1.68,-0.3,-5.1,-2.39
2026-06-22 00:15:05.326,-4.38,-0.5,-6.14,-0.82
2026-06-22 00:15:05.327,-3.06,-0.12,-5.32,1.17
2026-06-22 00:15:05.328,-0.66,-0.01,-4.89,0.28
2026-06-22 00:15:05.329,0.84,0.04,-0.86,0.12
2026-06-22 00:15:05.330,2.73,0.44,-0.49,-0.57
2026-06-22 00:15:05.328,2.8,0.02,-0.97,0.09
2026-06-22 00:15:05.329,-1.5,-0.96,-0.49,0.94
2026-06-22 00:15:05.330,-3.27,-1.8,-0.95,0.06
2026-06-22 00:15:05.331,-0.46,-1.11,-0.38,0.39
2026-06-22 00:15:05.332,-0.82,0.25,-0.81,2.38
2026-06-22 00:15:05.333,1.58,0,0.1,3.46
2026-06-22 00:15:05.334,2.37,0.02,-0.62,2.28
2026-06-22 00:15:05.335,1.28,1.02,-0.63,0.61
2026-06-22 00:15:05.336,1.99,0.8,-0.31,-1.09
2026-06-22 00:15:05.337,0.84,-0.9,1.26,-2.01
2026-06-22 00:15:05.338,-0.21,-1.28,0.93,-2.12
2026-06-22 00:15:05.339,-0.43,-0.83,-0.89,-4.04
2026-06-22 00:15:05.340,-1.24,-0.69,0.87,-2.26
2026-06-22 00:15:05.341,0.91,-0.21,-0.32,-0.95
2026-06-22 00:15:05.342,3.41,-1.65,5.37,0.05
2026-06-22 00:15:05.343,2.42,1.05,10.53,2.02
2026-06-22 00:15:05.344,2.27,8.83,15.09,-0.26
2026-06-22 00:15:05.345,-1.21,13.01,12.28,-1.17
2026-06-22 00:15:05.346,-4.74,14.49,-4.96,-1.48
2026-06-22 00:15:05.347,-3.87,6.57,-11.2,-0.23
2026-06-22 00:15:05.348,-3.9,-8.94,-11.88,1.5
2026-06-22 00:15:05.349,-2.37,-14.56,-8.52,-0.2
2026-06-22 00:15:05.350,0.22,-9.85,0.83,4.39
2026-06-22 00:15:05.351,-1.06,-4.32,-1.26,5.2
2026-06-22 00:15:05.352,0.56,-3.71,-1.16,-0.36
2026-06-22 00:15:05.353,2.63,-4.87,0.94,-0.79
2026-06-22 00:15:05.354,1.98,-1.41,-2.05,-0.72
2026-06-22 00:15:05.355,2.58,2.76,-0.89,1.02
2026-06-22 00:15:05.356,3.17,2.48,1.17,0.14
2026-06-22 00:15:05.357,2.89,3.22,0.19,-1.85
2026-06-22 00:15:05.358,-0.55,3.22,-0.9,0.98
2026-06-22 00:15:05.359,-1.45,0.8,0.19,-1.3
2026-06-22 00:15:05.360,0.29,0.59,3.45,-2.74
2026-06-22 00:15:05.361,-1.98,0.19,0.69,0.49
2026-06-22 00:15:05.362,-1.64,2.51,-2.88,-1.27
2026-06-22 00:15:05.363,2.08,0.49,1.39,-1.66
2026-06-22 00:15:05.364,0.2,-2.84,2.55,0.82
2026-06-22 00:15:05.365,-1.96,1.24,-0.71,2.33
2026-06-22 00:15:05.366,-5.13,-1.95,1.92,2.35
2026-06-22 00:15:05.367,-6.07,-4.07,3.66,0.52
2026-06-22 00:15:05.368,-0.53,0.77,1.08,-2.33
2026-06-22 00:15:05.369,3.16,-0.39,-0.58,-3.82
2026-06-22 00:15:05.370,4.02,1.19,1.04,-5.49
2026-06-22 00:15:05.371,2.73,4.07,-0.61,-0.91
2026-06-22 00:15:05.372,1.25,-0.15,-5.84,3.11
2026-06-22 00:15:05.373,1.11,-1.8,0.62,1.02
2026-06-22 00:15:05.374,0.12,-1.47,8.59,0.8
2026-06-22 00:15:05.375,-0.94,1.26,0.85,2.71
2026-06-22 00:15:05.376,0.23,6.84,-3.72,2.57
2026-06-22 00:15:05.377,2.25,10.34,-2.65,-0.34
2026-06-22 00:15:05.383,-1.06,9.26,-3.44,0.42
2026-06-22 00:15:05.384,-6.76,-2.81,-0.22,3.93
2026-06-22 00:15:05.385,-4.44,-9.91,-2.86,0.3
2026-06-22 00:15:05.386,-1.92,-5.8,1.11,-1.69
2026-06-22 00:15:05.387,-2.2,-4.4,6.16,2.38
2026-06-22 00:15:05.388,1.12,-1.27,1.41,1.37
2026-06-22 00:15:05.389,3.65,1.21,-0.65,-1.7
2026-06-22 00:15:05.390,4.2,0.98,-0.44,-2.81
2026-06-22 00:15:05.391,3.59,-0.2,-1.02,-0.98
2026-06-22 00:15:05.392,1.5,-2.75,-0.72,-0.58
2026-06-22 00:15:05.393,-0.74,-2.02,-0.91,0.71
2026-06-22 00:15:05.394,-2.12,-1.49,-0.96,1.76
2026-06-22 00:15:05.395,-0.28,1.01,-0.99,-1.74
2026-06-22 00:15:05.396,3.33,1.5,-1.05,-1.85
2026-06-22 00:15:05.397,4.26,-0.19,-1.1,-0.37
2026-06-22 00:15:05.398,-0.05,0.1,-0.89,-2.28
2026-06-22 00:15:05.399,-1.49,-1.6,-1.1,-1.13
2026-06-22 00:15:05.400,1.87,-1.18,-1.34,-1.55
2026-06-22 00:15:05.401,3.55,-0.57,-0.87,-2.63
2026-06-22 00:15:05.402,-0.05,0.07,-0.12,0.76
2026-06-22 00:15:05.403,-4.25,0.05,2.06,2.79
2026-06-22 00:15:05.404,-5.83,-0.95,0.06,1.53
2026-06-22 00:15:05.405,-6.58,-0.38,2.18,-0.62
2026-06-22 00:15:05.406,-3.69,-1.14,6.64,1.62
2026-06-22 00:15:05.407,0.34,0.47,1.9,1.46
2026-06-22 00:15:05.408,2.99,2.8,-0.09,0.25
2026-06-22 00:15:05.409,1.57,2.06,-0.69,2.3
2026-06-22 00:15:05.410,-0.54,2.33,-3.76,1.79
2026-06-22 00:15:05.411,-0.57,1.59,-0.96,2.19
2026-06-22 00:15:05.412,-1.35,0.43,0.65,1.62
2026-06-22 00:15:05.413,0.96,-0.14,0.29,0.83
2026-06-22 00:15:05.414,2.28,-2.67,0.86,0.04
2026-06-22 00:15:05.415,0.84,-1.38,-0.29,-3.11
2026-06-22 00:15:05.416,2.09,1.2,-0.35,-2.69
2026-06-22 00:15:05.417,0.46,0.22,0.8,-0.32
2026-06-22 00:15:05.418,0.16,0.13,-0.65,-1.31
2026-06-22 00:15:05.419,0.89,0.9,-0.94,-1.83
2026-06-22 00:15:05.420,0.29,-0.2,-0.81,-1.61
2026-06-22 00:15:05.421,1.76,-0.34,-0.9,-2.21
2026-06-22 00:15:05.422,0.62,-0.5,0.14,0.55
2026-06-22 00:15:05.423,-1.02,-1.06,-0.99,3.5
2026-06-22 00:15:05.424,-0.45,-0.53,-0.22,0.79
2026-06-22 00:15:05.425,0.43,-0.61,0.29,-0.13
2026-06-22 00:15:05.426,-0.5,-0.21,0.95,-0.26
2026-06-22 00:15:05.427,-1.25,0.06,-0.18,-0.39
2026-06-22 00:15:05.428,1.06,0.28,-1.54,-1.59
2026-06-22 00:15:05.429,4.26,0.78,-3.13,-1.4
2026-06-22 00:15:05.430,3.38,0.75,-1.46,2.71
2026-06-22 00:15:05.431,-0.13,0.51,0.34,2.12
2026-06-22 00:15:05.432,-1.91,1.07,-2.16,2.67
2026-06-22 00:15:05.429,-2.33,-0.24,-3,1.49
2026-06-22 00:15:05.430,-5.94,-3.89,-4.32,-1.21
2026-06-22 00:15:05.431,-7.24,-3.06,-4.49,-1.24
2026-06-22 00:15:05.432,-2.32,1.3,2.83,-1.37
2026-06-22 00:15:05.433,1.75,1.04,11.92,1.28
2026-06-22 00:15:05.434,3.08,0.01,11.77,-2.04
2026-06-22 00:15:05.435,2.8,3.46,8.96,-5.61
2026-06-22 00:15:05.436,2.18,3.42,6.79,-2.78
2026-06-22 00:15:05.437,2.51,-0.85,-0.41,-1.05
2026-06-22 00:15:05.438,0.61,-2.37,-5.44,4.25
2026-06-22 00:15:05.439,-1.45,-0.84,-7.65,4.52
2026-06-22 00:15:05.440,-1.5,-1.46,-9.37,1.31
2026-06-22 00:15:05.441,-2.08,-1.98,-6.45,2.3
2026-06-22 00:15:05.442,1.39,-0.26,-3.77,0.62
2026-06-22 00:15:05.443,2.81,0.12,1.81,-1.81
2026-06-22 00:15:05.444,0.08,0.47,1.42,-1.74
2026-06-22 00:15:05.445,-0.38,-1.15,0.56,-0.08
2026-06-22 00:15:05.446,-1.06,-1.16,1.9,-0.21
2026-06-22 00:15:05.447,-1.9,3.12,3.2,-1.33
2026-06-22 00:15:05.448,-1.01,2.28,4.92,-0.27
2026-06-22 00:15:05.449,-1.41,1.09,1.58,0.67
2026-06-22 00:15:05.450,0.53,1.29,0.22,1.48
2026-06-22 00:15:05.451,2.1,-0.56,0.59,-0.57
2026-06-22 00:15:05.452,1.37,1.18,-0.05,-1.34
2026-06-22 00:15:05.453,3.39,0.45,-5.28,1.49
2026-06-22 00:15:05.454,1.33,-2.22,-6.53,2.21
2026-06-22 00:15:05.455,-1.43,-1.76,-0.65,-0.33
2026-06-22 00:15:05.456,-2.34,-1.67,0.1,-0.57
2026-06-22 00:15:05.457,-2.99,-1.25,0.51,0.13
2026-06-22 00:15:05.458,1.45,-0.38,0.65,-0.22
2026-06-22 00:15:05.459,3.34,-2.12,-0.74,0.68
2026-06-22 00:15:05.460,3.44,-2.9,0.36,-2.69
2026-06-22 00:15:05.461,5.06,-1.9,-0.87,-5.2
2026-06-22 00:15:05.462,1.26,0.61,0.98,-0.45
2026-06-22 00:15:05.463,-0.71,4.34,5,1.17
2026-06-22 00:15:05.464,-2.88,5.78,3.74,-1.31
2026-06-22 00:15:05.465,-4.78,5.33,0.39,0.25
2026-06-22 00:15:05.466,-3.46,4.78,-0.05,2.46
2026-06-22 00:15:05.467,-5.59,0.63,0.34,3.43
2026-06-22 00:15:05.468,-3.55,-4.31,0.15,0.74
2026-06-22 00:15:05.469,-2.42,-7.04,-0.49,-1.33
2026-06-22 00:15:05.470,-4.23,-7.49,-0.47,-0.8
2026-06-22 00:15:05.471,-1.66,-1.5,3.11,-2.36
2026-06-22 00:15:05.472,2.65,3.09,3.03,-0.39
2026-06-22 00:15:05.473,3.45,2.04,-1.06,3.63
2026-06-22 00:15:05.474,3.23,0.74,-2.02,0.62
2026-06-22 00:15:05.475,5.07,0.38,-1.84,-0.42
2026-06-22 00:15:05.476,4.19,1.09,-1.76,1.36
2026-06-22 00:15:05.477,1.84,0.47,-1.7,-1.42
2026-06-22 00:15:05.478,1.92,0.34,-1.38,-1.74
2026-06-22 00:15:05.483,4.61,0.17,-1.61,-1.08
2026-06-22 00:15:05.484,2.66,-0.9,-1.04,-1.04
2026-06-22 00:15:05.485,-3.12,5.63,-1.69,1.88
2026-06-22 00:15:05.486,-2.5,5.78,-0.88,2.47
2026-06-22 00:15:05.487,-2.75,-4.53,4.83,1.96
2026-06-22 00:15:05.488,-3.43,-7.16,3.58,1.99
2026-06-22 00:15:05.489,0.41,-0.54,-1.44,-0.33
2026-06-22 00:15:05.490,-1.27,2.35,-0.22,0.3
2026-06-22 00:15:05.491,0.44,1.72,-1.7,2.15
2026-06-22 00:15:05.492,1.63,2.8,-2.03,0.37
2026-06-22 00:15:05.493,-0.54,2.33,2.94,-1.63
2026-06-22 00:15:05.494,-0.38,1.61,4.15,-1.88
2026-06-22 00:15:05.495,-1.16,-0.01,3.14,-2.37
2026-06-22 00:15:05.496,-2.33,-2.42,1.6,-1.6
2026-06-22 00:15:05.497,-4.37,-3.51,-1.36,-1.77
2026-06-22 00:15:05.498,-0.81,-2.81,-1.9,-1.39
2026-06-22 00:15:05.499,2.08,-0.36,-1.67,0.39
2026-06-22 00:15:05.500,0.01,0.53,-2.78,0.1
2026-06-22 00:15:05.501,1.13,-0.14,-2.7,-0.49
2026-06-22 00:15:05.502,3.21,-0.22,-1.31,0.55
2026-06-22 00:15:05.503,0.6,-0.24,0.2,0.29
2026-06-22 00:15:05.504,-1.63,0.96,-0.02,0.98
2026-06-22 00:15:05.505,-0.39,0.03,-0.21,1.98
2026-06-22 00:15:05.506,-1.05,-0.65,0.19,-1.19
2026-06-22 00:15:05.507,-2.99,0.56,0.74,-0.75
2026-06-22 00:15:05.508,0.22,1.09,0.95,2.19
2026-06-22 00:15:05.509,3.58,1.18,0.63,-0.45
2026-06-22 00:15:05.510,3.13,1.23,0.72,-1.07
2026-06-22 00:15:05.511,1.66,0.69,0.23,2.01
2026-06-22 00:15:05.512,1.11,0.49,-0.44,0.63
2026-06-22 00:15:05.513,0.37,1.35,-0.27,0.69
2026-06-22 00:15:05.514,-0.05,1.92,-0.91,1.69
2026-06-22 00:15:05.515,0.65,1.61,-0.71,-0.83
2026-06-22 00:15:05.516,1.56,0.76,1.1,-2.44
2026-06-22 00:15:05.517,2.92,0.02,2.17,-0.95
2026-06-22 00:15:05.518,-0.11,0.35,0.12,-0.19
2026-06-22 00:15:05.519,-2.47,-0.8,-1.92,0.56
2026-06-22 00:15:05.520,0.27,-3.38,-0.58,1.12
2026-06-22 00:15:05.521,-1.31,-2.84,0.44,0.48
2026-06-22 00:15:05.522,-4.58,-2.18,-1.11,-0.12
2026-06-22 00:15:05.523,-4.84,-2.02,-1.09,0.53
2026-06-22 00:15:05.524,-5.8,-0.87,0.71,-0.04
2026-06-22 00:15:05.525,-4.25,-0.95,0.45,-0.88
2026-06-22 00:15:05.526,-1.09,-1.65,-0.72,-0.99
2026-06-22 00:15:05.527,0.88,-1.3,-1.4,-0.72
2026-06-22 00:15:05.528,4.43,-1.53,-0.81,1.27
2026-06-22 00:15:05.529,5.78,-1.71,-0.2,0.84
2026-06-22 00:15:05.530,5.94,-0.6,-1.21,1.32
2026-06-22 00:15:05.531,6.61,-0.15,-2.26,1.48
2026-06-22 00:15:05.532,4.26,1.92,-1.03,-1.05
2026-06-22 00:15:05.529,1.95,1.69,-2.89,-0.05
2026-06-22 00:15:05.530,-2.41,-0.57,-2.32,-0.48
2026-06-22 00:15:05.531,-4.19,-2.3,1.58,-0.67
2026-06-22 00:15:05.532,0.82,-1.01,2.03,-0.73
2026-06-22 00:15:05.533,4.66,6.86,3.55,-0.78
2026-06-22 00:15:05.534,4.55,2.74,9.15,0.02
2026-06-22 00:15:05.535,-0.39,1.82,16.98,-1.39
2026-06-22 00:15:05.536,-2.8,7.63,11.28,-0.51
2026-06-22 00:15:05.537,-1.2,3.09,0.62,1.63
2026-06-22 00:15:05.538,-3.07,3.16,-3.38,1.39
2026-06-22 00:15:05.539,-4.89,-0.86,-16.66,-3.49
2026-06-22 00:15:05.540,-4.67,-5.07,-17.11,-5.66
2026-06-22 00:15:05.541,-1.38,-1.99,-2.94,-0.41
2026-06-22 00:15:05.542,0.39,-1.44,0.2,0.2
2026-06-22 00:15:05.543,-0.48,0.04,1.93,0.11
2026-06-22 00:15:05.544,-1.26,2.52,2.51,2.53
2026-06-22 00:15:05.545,-3.43,0.68,1.88,-0.93
2026-06-22 00:15:05.546,-5.55,-9.93,2.01,-1.97
2026-06-22 00:15:05.547,-5.48,-8.97,0.93,-1.15
2026-06-22 00:15:05.548,-1.22,0.57,1.47,1.79
2026-06-22 00:15:05.549,3.18,0.45,-0.18,3.83
2026-06-22 00:15:05.550,7.35,3.36,-6.4,5.98
2026-06-22 00:15:05.551,7.7,3.73,-5.95,6.79
2026-06-22 00:15:05.552,3.27,1.36,0.03,1.31
2026-06-22 00:15:05.553,-0.75,-0.94,0.75,-3.36
2026-06-22 00:15:05.554,-3.07,-2.46,-0.26,-4.04
2026-06-22 00:15:05.555,-1.16,1.08,-1.7,-2.15
2026-06-22 00:15:05.556,-1.41,1.64,3.15,-0.52
2026-06-22 00:15:05.557,0.03,0.24,7.16,1.24
2026-06-22 00:15:05.558,0.42,0.91,4.29,3.16
2026-06-22 00:15:05.559,0.83,1.36,3.84,1.82
2026-06-22 00:15:05.560,4.7,0.41,0.1,-0.85
2026-06-22 00:15:05.561,1.38,-1.06,-0.51,-0.2
2026-06-22 00:15:05.562,-1.09,0.12,2.84,-0.03
2026-06-22 00:15:05.563,0.15,-0.15,0.62,-0.75
2026-06-22 00:15:05.564,0.7,-0.05,-0.63,-1.62
2026-06-22 00:15:05.565,0.67,0.83,-0.3,-3.17
2026-06-22 00:15:05.566,-0.97,-0.49,-0.15,-0.86
2026-06-22 00:15:05.567,-1.15,0.27,-0.63,-0.24
2026-06-22 00:15:05.568,-1.41,0.28,-1.25,-2.04
2026-06-22 00:15:05.569,-0.29,-0.52,-1.08,-0.26
2026-06-22 00:15:05.570,-0.84,0.18,-1.52,0.03
2026-06-22 00:15:05.571,-2.58,-0.25,-1.42,-0.77
2026-06-22 00:15:05.572,-2.15,-3.06,-0.84,-0.77
2026-06-22 00:15:05.573,-5.26,-2.66,-1.66,-0.53
2026-06-22 00:15:05.574,-4.19,3.66,-1.52,-0.18
2026-06-22 00:15:05.575,-1.07,7.64,0.74,0.29
2026-06-22 00:15:05.576,-1.62,4.58,-1.49,2.08
2026-06-22 00:15:05.577,-0.65,1.73,-1.23,-0.23
2026-06-22 00:15:05.578,3.43,-1.31,0.85,-0.89
2026-06-22 00:15:05.584,6.47,-1.02,-0.99,1.26
2026-06-22 00:15:05.585,2.85,-2.12,-0.49,1.84
2026-06-22 00:15:05.586,1.8,-6.83,-0.47,-0.51
2026-06-22 00:15:05.587,3.34,-5.1,0.64,-2.61
2026-06-22 00:15:05.588,1.01,-0.67,1.37,1.17
2026-06-22 00:15:05.589,2,-0.04,-0.1,2.3
2026-06-22 00:15:05.590,1.12,-0.16,0.94,3.45
2026-06-22 00:15:05.591,-0.92,1.35,2.79,3.24
2026-06-22 00:15:05.592,0.91,0.11,2.44,-0.47
2026-06-22 00:15:05.593,0.24,0.95,-0.07,-1.7
2026-06-22 00:15:05.594,-0.17,2.61,-1.54,-1.22
2026-06-22 00:15:05.595,-1.8,0.85,-1.32,0.16
2026-06-22 00:15:05.596,-6.43,2.17,-0.36,1.24
2026-06-22 00:15:05.597,-7.54,-1.56,2.69,0.64
2026-06-22 00:15:05.598,-4.25,-6.37,2.52,-0.23
2026-06-22 00:15:05.599,0.75,-1.44,-1.9,-2.88
2026-06-22 00:15:05.600,1.85,0.54,-3.16,-4.07
2026-06-22 00:15:05.601,3.74,0.06,-1.39,-1.65
2026-06-22 00:15:05.602,5.99,0.75,-0.92,2.44
2026-06-22 00:15:05.603,2.89,-0.64,-0.61,1.85
2026-06-22 00:15:05.604,2.97,-0.32,0.26,-0.56
2026-06-22 00:15:05.605,3.99,-0.35,0.09,1.48
2026-06-22 00:15:05.606,-1.5,0.54,-0.36,1.87
2026-06-22 00:15:05.607,-2.23,1.77,-0.25,-0.29
2026-06-22 00:15:05.608,-1.43,2.4,0.38,-1.17
2026-06-22 00:15:05.609,-1.82,2.47,0.67,-0.56
2026-06-22 00:15:05.610,1.84,1.93,0.16,-0.11
2026-06-22 00:15:05.611,2.98,4.09,0.47,0.72
2026-06-22 00:15:05.612,3.66,2.06,-0.16,0.2
2026-06-22 00:15:05.613,1.74,-2.58,-0.76,0.34
2026-06-22 00:15:05.614,-0.46,-3.6,-0.38,0.6
2026-06-22 00:15:05.615,-0.41,-3.54,-0.61,0.59
2026-06-22 00:15:05.616,-2.53,-1.92,-0.33,-1.35
2026-06-22 00:15:05.617,-7.21,-0.28,-2.17,-2.58
2026-06-22 00:15:05.618,-6.4,0.24,0.08,-0.05
2026-06-22 00:15:05.619,0.64,1.1,4.65,1.06
2026-06-22 00:15:05.620,3.22,-0.19,3.62,-0.41
2026-06-22 00:15:05.621,1.76,-0.42,3.46,-0.17
2026-06-22 00:15:05.622,1.12,-0.65,0.42,0.49
2026-06-22 00:15:05.623,0.71,-0.74,-0.35,1.05
2026-06-22 00:15:05.624,-0.41,-0.93,0.3,0.28
2026-06-22 00:15:05.625,0.07,-1.53,-4.37,-0.89
2026-06-22 00:15:05.626,0.27,-0.09,-1.85,-0.96
2026-06-22 00:15:05.627,0.14,-0.65,-3.1,-1.3
2026-06-22 00:15:05.628,3.16,-0.54,-5.59,-0.69
2026-06-22 00:15:05.629,2.9,0.29,-1.41,-1.89
2026-06-22 00:15:05.630,0.44,-1.96,0.27,0.47
2026-06-22 00:15:05.631,0.57,-0.17,-1.33,2.2
2026-06-22 00:15:05.632,3,2.72,0.21,0.8
2026-06-22 00:15:05.633,3.79,0.73,3.76,-1.45
2026-06-22 00:15:05.628,-3.32,0.31,6.69,-2.24
2026-06-22 00:15:05.629,-6.67,-0.46,7.8,0.03
2026-06-22 00:15:05.630,-4.17,-1.33,1.87,0.95
2026-06-22 00:15:05.631,-5.44,-4.43,-3.5,1.03
2026-06-22 00:15:05.632,-5.29,-2.15,-2.45,2.66
2026-06-22 00:15:05.633,-3.78,4.77,-0.19,1.21
2026-06-22 00:15:05.634,0.75,0.54,-3.2,-1.7
2026-06-22 00:15:05.635,7.07,-0.22,-3.32,0.75
2026-06-22 00:15:05.636,5.48,3.17,2.94,3.72
2026-06-22 00:15:05.637,2.6,1.61,2.43,0.16
2026-06-22 00:15:05.638,1.95,0.37,-0.88,-1.51
2026-06-22 00:15:05.639,-1.82,1.19,-1.06,0.16
2026-06-22 00:15:05.640,0.15,2.4,-4.08,-1.91
2026-06-22 00:15:05.641,3.34,2.45,-0.38,-0.32
2026-06-22 00:15:05.642,-0.65,1.94,1.68,0.68
2026-06-22 00:15:05.643,-0.35,7.03,-1.44,-0.74
2026-06-22 00:15:05.644,-0.47,15.76,0.26,-0.53
2026-06-22 00:15:05.645,-1.9,4.62,-0.61,-1.37
2026-06-22 00:15:05.646,-3.12,-13.83,-1.94,-1.51
2026-06-22 00:15:05.647,-3.42,-16.69,0.41,-0.42
2026-06-22 00:15:05.648,2.13,-12.08,0.24,-0.13
2026-06-22 00:15:05.649,4.84,-4.26,-1.24,1.55
2026-06-22 00:15:05.650,1.6,-1.7,-0.09,2.77
2026-06-22 00:15:05.651,2.9,-0.28,0.61,2.11
2026-06-22 00:15:05.652,0.79,2.82,0.5,0.05
2026-06-22 00:15:05.653,-1.68,0.83,-0.43,0.43
2026-06-22 00:15:05.654,0.49,1.95,-0.33,-0.42
2026-06-22 00:15:05.655,0.56,2.53,-2.26,-4.76
2026-06-22 00:15:05.656,-0.73,2.52,-0.87,-3.19
2026-06-22 00:15:05.657,-3.57,1.85,-1.12,0.89
2026-06-22 00:15:05.658,-2.03,2.18,3.68,1.9
2026-06-22 00:15:05.659,-2.75,2.18,18.23,1.49
2026-06-22 00:15:05.660,-4.85,-1.96,13.36,-2.18
2026-06-22 00:15:05.661,0.17,-1.13,6.62,-2.71
2026-06-22 00:15:05.662,1.92,2.01,0.36,-0.07
2026-06-22 00:15:05.663,-2.54,3,-15.43,-1.62
2026-06-22 00:15:05.664,-3.84,0.2,-14.75,-0.14
2026-06-22 00:15:05.665,-4.1,-1.28,-4.72,3.28
2026-06-22 00:15:05.666,-2.11,-0.26,-0.08,2.09
2026-06-22 00:15:05.667,2.11,1.43,0.31,3.91
2026-06-22 00:15:05.668,3.17,1.56,-1.18,3.32
2026-06-22 00:15:05.669,2.54,1.27,-0.42,-1.6
2026-06-22 00:15:05.670,4.52,2.65,-1.98,0.2
2026-06-22 00:15:05.671,4.55,2.51,-1.36,0.56
2026-06-22 00:15:05.672,1.74,1.66,2.46,0.61
2026-06-22 00:15:05.673,0.59,-0.91,3.84,0.27
2026-06-22 00:15:05.674,2.98,-3.17,1.95,0
2026-06-22 00:15:05.675,4.33,-2.2,0.03,2.69
2026-06-22 00:15:05.676,3.51,-1.38,0.51,-0.44
2026-06-22 00:15:05.677,2.31,-1.2,0.43,-2.46
2026-06-22 00:15:05.692,-2.11,0.46,0.71,-1.29
2026-06-22 00:15:05.693,-3.22,1.95,0.64,-0.6
2026-06-22 00:15:05.694,-2.1,3.31,1.75,0.38
2026-06-22 00:15:05.695,-1.54,3.96,0.34,-0.79
2026-06-22 00:15:05.696,-0.75,1.41,-1.97,-2.49
2026-06-22 00:15:05.697,-2.12,-4.56,0.5,-3.02
2026-06-22 00:15:05.698,-3.13,-7.92,-1.2,-0.22
2026-06-22 00:15:05.699,-3.55,-7.23,-6.09,1.65
2026-06-22 00:15:05.700,-3.1,-1.52,-1.76,-0.11
2026-06-22 00:15:05.701,-2.57,2.14,4.54,-0.73
2026-06-22 00:15:05.702,-3.98,3.02,5.32,-1.69
2026-06-22 00:15:05.703,-2.82,3.8,1.86,-0.35
2026-06-22 00:15:05.704,0.12,3.15,-1.17,2.31
2026-06-22 00:15:05.705,-1.02,4.92,-0.15,1.01
2026-06-22 00:15:05.706,-0.47,-0.22,-0.3,-0.82
2026-06-22 00:15:05.707,5.95,-5.67,1.45,0.22
2026-06-22 00:15:05.708,8.07,-2.47,1.32,1.48
2026-06-22 00:15:05.709,3.93,-1.15,-2.29,-0.37
2026-06-22 00:15:05.710,2.99,-0.87,-1.51,-1.87
2026-06-22 00:15:05.711,2.32,0.07,-1.38,0.77
2026-06-22 00:15:05.712,0.12,-0.67,-0.91,0.99
2026-06-22 00:15:05.713,0.33,0.03,-0.82,-0.37
2026-06-22 00:15:05.714,1.49,-0.42,-0.42,0.87
2026-06-22 00:15:05.715,0.92,-1.4,1.06,-1.1
2026-06-22 00:15:05.716,-0.45,-0.16,-0.29,-1.09
2026-06-22 00:15:05.717,-0.27,0.24,-0.38,1.2
2026-06-22 00:15:05.718,-2.13,-0.06,0.34,0.31
2026-06-22 00:15:05.719,-0.05,2.66,-0.44,1.45
2026-06-22 00:15:05.720,1.22,3.63,-0.6,2.57
2026-06-22 00:15:05.721,-3.7,0.12,-0.66,-0.56
2026-06-22 00:15:05.722,-4.96,-0.75,-0.66,-0.43
2026-06-22 00:15:05.723,-5.85,-0.35,-0.81,-0.18
2026-06-22 00:15:05.724,-3.79,-1.26,-0.57,-2.77
2026-06-22 00:15:05.725,2.45,-0.79,0.08,-0.99
2026-06-22 00:15:05.726,4.66,-1.15,-0.4,-0.13
2026-06-22 00:15:05.727,5.02,-1.09,-0.28,-0.03
2026-06-22 00:15:05.728,2.89,-1.71,-0.18,0.61
2026-06-22 00:15:05.729,2.2,-2.86,0.38,-2.68
2026-06-22 00:15:05.730,1.63,-1.8,0.02,-3.42
2026-06-22 00:15:05.731,-1.71,1.13,-0.61,-1.05
2026-06-22 00:15:05.732,-1.52,4.32,0.24,0.4
2026-06-22 00:15:05.733,-1.55,3.75,-0.4,1.12
2026-06-22 00:15:05.734,-3.74,3.92,0.48,1.79
2026-06-22 00:15:05.735,-3.98,4.27,0.93,1.47
2026-06-22 00:15:05.736,-0.75,-1.24,-0.29,0.91
2026-06-22 00:15:05.737,1.86,-6.15,0.55,1.06
2026-06-22 00:15:05.738,2.63,-3.66,0.96,0.06
2026-06-22 00:15:05.739,3.44,0.17,1.02,-0.76
2026-06-22 00:15:05.740,3.3,0.76,-0.37,0.04
2026-06-22 00:15:05.741,3.23,-0.23,0.07,-0.12
2026-06-22 00:15:05.728,1.99,-1.23,-0.12,0.04
2026-06-22 00:15:05.729,-4.49,1.68,0.13,0.67
2026-06-22 00:15:05.730,-9.6,0.24,2.17,-0.14
2026-06-22 00:15:05.731,-5.71,-3.87,0.09,0.1
2026-06-22 00:15:05.732,1.09,-0.39,-0.42,0.27
2026-06-22 00:15:05.733,2.93,1.36,1.68,0.39
2026-06-22 00:15:05.734,2.67,0.46,1.25,2.35
2026-06-22 00:15:05.735,2.19,0.86,1.21,1.24
2026-06-22 00:15:05.736,0.45,0.05,0.45,-1.01
2026-06-22 00:15:05.737,-1.38,-0.12,-3.31,-1.25
2026-06-22 00:15:05.738,-2.25,-0.91,-6.17,-0.37
2026-06-22 00:15:05.739,-0.66,-0.81,-3.2,0.18
2026-06-22 00:15:05.740,2.23,-0.21,1.85,-0.54
2026-06-22 00:15:05.741,4.04,1.07,1.38,0.06
2026-06-22 00:15:05.742,2.5,1.1,1.65,0.06
2026-06-22 00:15:05.743,1.08,-0.3,2.51,-0.79
2026-06-22 00:15:05.744,1.72,0.6,1.15,-1.64
2026-06-22 00:15:05.745,0.03,0.4,-0.12,0.06
2026-06-22 00:15:05.746,-0.78,0.61,0.51,-0.1
2026-06-22 00:15:05.747,0.11,2.52,-0.23,-0.59
2026-06-22 00:15:05.748,-1.29,1.71,-0.83,0.89
2026-06-22 00:15:05.749,-4.83,-0.17,-0.09,-0.68
2026-06-22 00:15:05.750,-4.39,0.21,1.15,-0.92
2026-06-22 00:15:05.751,-3.5,0.22,4.45,-0.14
2026-06-22 00:15:05.752,-2.78,0.46,4.26,0.5
2026-06-22 00:15:05.753,0.01,-0.17,2.11,3.02
2026-06-22 00:15:05.754,1.24,-1.48,-1.28,-0.09
2026-06-22 00:15:05.755,3.49,-1.96,-10.44,-0.57
2026-06-22 00:15:05.756,4.63,-0.75,-9.5,3.97
2026-06-22 00:15:05.757,2.82,-0.36,-1.17,3.76
2026-06-22 00:15:05.758,1.46,-1.38,0.42,5.31
2026-06-22 00:15:05.759,1.45,-0.91,6.76,3.92
2026-06-22 00:15:05.760,2.79,-0.41,7.11,-2.08
2026-06-22 00:15:05.761,0.66,-0.57,0.13,-5.41
2026-06-22 00:15:05.762,-3.01,-0.26,-0.52,-5.99
2026-06-22 00:15:05.763,-0.59,0.44,0.37,-3.31
2026-06-22 00:15:05.764,0.41,0.51,-0.63,-0.47
2026-06-22 00:15:05.765,-0.79,0.42,-0.18,-0.73
2026-06-22 00:15:05.766,-0.44,-0.58,0.82,0.08
2026-06-22 00:15:05.767,-0.93,-0.67,-0.74,-0.03
2026-06-22 00:15:05.768,-0.59,0.57,-0.75,-0.12
2026-06-22 00:15:05.769,2.09,0.32,0.44,0.64
2026-06-22 00:15:05.770,-0.22,2.72,-0.76,0.41
2026-06-22 00:15:05.771,-0.98,5.28,-1.13,-0.26
2026-06-22 00:15:05.772,1.98,2.6,-0.9,0.94
2026-06-22 00:15:05.773,1.3,1.23,-0.83,1.97
2026-06-22 00:15:05.774,-0.24,-0.62,-1.06,-0.28
2026-06-22 00:15:05.775,-2.65,-3.18,-0.45,0.34
2026-06-22 00:15:05.776,-4.51,-1.81,2.06,0.63
2026-06-22 00:15:05.777,-7.11,-2.84,1.31,0.25
2026-06-22 00:15:05.792,-8.15,-5.26,-0.23,2.5
2026-06-22 00:15:05.793,-1,-1.51,0.49,-0.37
2026-06-22 00:15:05.794,6.16,0.8,-1.09,-1.66
2026-06-22 00:15:05.795,8.4,-0.96,-0.34,1.24
2026-06-22 00:15:05.796,6.67,-0.38,1.98,-2.11
2026-06-22 00:15:05.797,3.86,0.81,-0.76,-0.64
2026-06-22 00:15:05.798,2.49,1.63,-1.03,1.14
2026-06-22 00:15:05.799,0.33,2.39,0.97,-0.03
2026-06-22 00:15:05.800,-0.01,1.83,-0.95,0.85
2026-06-22 00:15:05.801,-1.33,1.47,-1.78,-1.36
2026-06-22 00:15:05.802,-2.44,1.03,-1.05,-2.05
2026-06-22 00:15:05.803,-0.81,-1.2,1.41,-1.21
2026-06-22 00:15:05.804,-0.3,0.24,1.23,-1.63
2026-06-22 00:15:05.805,-5.05,0.76,-0.71,0.84
2026-06-22 00:15:05.806,-6.98,-2.42,2.28,1.82
2026-06-22 00:15:05.807,-0.68,-0.86,1.87,-3.41
2026-06-22 00:15:05.808,0.47,1.2,-0.27,-1.75
2026-06-22 00:15:05.809,-0.24,-0.6,-0.22,4.42
2026-06-22 00:15:05.810,0.7,-0.6,-0.58,0.58
2026-06-22 00:15:05.811,0.55,-1.16,-1.4,-1.36
2026-06-22 00:15:05.812,0.7,-2.26,-1.13,0.03
2026-06-22 00:15:05.813,1.37,-0.78,-0.3,0.13
2026-06-22 00:15:05.814,1.95,1.13,0.41,2.22
2026-06-22 00:15:05.815,-1.61,0.36,-0.17,0.42
2026-06-22 00:15:05.816,0.49,-0.27,0.13,0.2
2026-06-22 00:15:05.817,2.84,1.36,-0.23,-0.42
2026-06-22 00:15:05.818,0.32,2.23,-0.27,-0.63
2026-06-22 00:15:05.819,-1.06,1.43,-0.34,1.22
2026-06-22 00:15:05.820,-2.16,1.47,-0.8,0.11
2026-06-22 00:15:05.821,1,1.28,-0.35,0.06
2026-06-22 00:15:05.822,1.94,-1.12,-1.43,1.58
2026-06-22 00:15:05.823,0.04,-2.24,-0.13,0.71
2026-06-22 00:15:05.824,0.26,-0.73,0.38,-2.64
2026-06-22 00:15:05.825,0.05,-0.09,0.99,-3.26
2026-06-22 00:15:05.826,0.65,0.44,2.72,0.95
2026-06-22 00:15:05.827,0.4,1.24,1.06,1.37
2026-06-22 00:15:05.828,1.76,0.01,-0.12,-2.85
2026-06-22 00:15:05.829,1.07,-0.25,0.06,-2.03
2026-06-22 00:15:05.830,-3.96,-0.3,-1.08,0.91
2026-06-22 00:15:05.831,-5.15,-0.7,-0.16,0.69
2026-06-22 00:15:05.832,-5.65,-1.96,-1.54,0.73
2026-06-22 00:15:05.833,-3.26,-1.98,-0.33,-0.32
2026-06-22 00:15:05.834,1.5,-0.15,0.88,-1.01
2026-06-22 00:15:05.835,1.97,0.75,-0.7,0.84
2026-06-22 00:15:05.836,3.05,0.29,0.13,1.98
2026-06-22 00:15:05.837,3.44,1.6,-0.61,0.31
2026-06-22 00:15:05.838,1.85,2.33,0.3,0.28
2026-06-22 00:15:05.839,3.08,1.46,1.09,1.39
2026-06-22 00:15:05.840,3.54,2.06,-0.49,0.09
2026-06-22 00:15:05.841,2.73,-0.67,-3.26,-0.38
2026-06-22 00:15:05.830,-0.14,-4.9,-2.23,-0.31
2026-06-22 00:15:05.831,-1.63,-1.08,2.59,-0.31
2026-06-22 00:15:05.832,-2.34,1.25,0.47,-1.66
2026-06-22 00:15:05.833,-5.14,0.34,-0.61,-0.07
2026-06-22 00:15:05.834,-1.8,0.78,3.32,1.71
2026-06-22 00:15:05.835,3.43,0.1,0.12,2.51
2026-06-22 00:15:05.836,2.28,0.62,-1.28,2.99
2026-06-22 00:15:05.837,-0.49,-0.05,-0.31,-0.98
2026-06-22 00:15:05.838,-0.76,0.02,-3.32,-1.58
2026-06-22 00:15:05.839,-0.89,-0.01,0.19,-0.15
2026-06-22 00:15:05.840,-1.85,-2.14,2.38,0.38
2026-06-22 00:15:05.841,-2.9,-1.21,0.42,-1.86
2026-06-22 00:15:05.842,-1.43,1.48,1.24,-2.62
2026-06-22 00:15:05.843,-1.33,0.81,0.81,-0.18
2026-06-22 00:15:05.844,-2.2,0.34,3.83,-1.44
2026-06-22 00:15:05.845,1.72,-0.56,5.05,0.68
2026-06-22 00:15:05.846,4.42,-1.88,1.68,-0.11
2026-06-22 00:15:05.847,0.2,-0.39,-0.86,-0.26
2026-06-22 00:15:05.848,-0.5,2.13,-6.74,2.97
2026-06-22 00:15:05.849,2.57,0.29,-4.29,-2.31
2026-06-22 00:15:05.850,2.51,-1.43,1.77,-1.75
2026-06-22 00:15:05.851,1.98,-0.82,0.37,2.44
2026-06-22 00:15:05.852,1.43,-0.3,-0.79,-0.58
2026-06-22 00:15:05.853,0.95,0.58,-1.68,-0.47
2026-06-22 00:15:05.854,-0.03,0.58,-0.82,2.2
2026-06-22 00:15:05.855,0.38,0.55,0.94,2.18
2026-06-22 00:15:05.856,-0.96,0.82,-0.89,0.49
2026-06-22 00:15:05.857,-0.7,-0.13,-3.03,-0.03
2026-06-22 00:15:05.858,-0.45,-0.11,1.61,0.39
2026-06-22 00:15:05.859,-2.56,0.94,4.5,1.77
2026-06-22 00:15:05.860,-0.85,1.77,4.3,3.48
2026-06-22 00:15:05.861,-1.77,3.04,-0.17,0.27
2026-06-22 00:15:05.862,-4.94,1.46,-4.46,-5.72
2026-06-22 00:15:05.863,-6.15,-3.79,-0.57,-3.42
2026-06-22 00:15:05.864,-2.36,-6.89,0.37,-0.1
2026-06-22 00:15:05.865,0.5,-3.56,-0.56,-1.49
2026-06-22 00:15:05.866,-0.7,-0.23,1.68,-0.11
2026-06-22 00:15:05.867,2.64,1.31,1.73,0.07
2026-06-22 00:15:05.868,6.41,1.2,0.75,0.04
2026-06-22 00:15:05.869,6.98,1.82,0.88,1.71
2026-06-22 00:15:05.870,3.51,2.51,-0.01,1.76
2026-06-22 00:15:05.871,1.44,2.23,-0.69,0.33
2026-06-22 00:15:05.872,0.86,3.24,0.44,-0.49
2026-06-22 00:15:05.873,-3.42,0.92,-0.89,-2.74
2026-06-22 00:15:05.874,-1.65,-2.29,-1.82,-2.76
2026-06-22 00:15:05.875,-0.72,-0.94,-1.26,0.47
2026-06-22 00:15:05.876,-0.73,-0.53,-1.59,0.97
2026-06-22 00:15:05.877,2.9,0.04,-1.6,1.34
2026-06-22 00:15:05.878,1.36,-0.5,1.84,2.02
2026-06-22 00:15:05.879,1.96,-2.98,2.04,2.05
2026-06-22 00:15:05.892,,-1.93,-1.33,0.62
2026-06-22 00:15:05.888,1.72,0.5,1.41,-1.47
2026-06-22 00:15:05.889,-2.99,1.78,1.2,-1.46
2026-06-22 00:15:05.890,-5.77,1.47,-1.13,-1.36
2026-06-22 00:15:05.891,-4.42,2.27,-2.06,-1.84
2026-06-22 00:15:05.892,-2.67,1.52,-0.52,1.11
2026-06-22 00:15:05.893,-4.87,-2.31,1.37,1.78
2026-06-22 00:15:05.894,-3.46,-3.33,1.41,-0.32
2026-06-22 00:15:05.895,0.54,-0.8,1.3,1.84
2026-06-22 00:15:05.896,1.23,0.6,-0.31,1.37
2026-06-22 00:15:05.897,3.94,0.54,0.31,-0.92
2026-06-22 00:15:05.898,3.69,1.13,0.86,-0.52
2026-06-22 00:15:05.899,3.74,1.57,-1.78,0.15
2026-06-22 00:15:05.900,5.45,,-1,-0.33
2026-06-22 00:15:05.901,3.69,0.88,-0.81,-1.44
2026-06-22 00:15:05.902,1.72,0.31,-0.16,-0.6
2026-06-22 00:15:05.903,-0.46,-0.95,0.79,-0.22
2026-06-22 00:15:05.904,1.43,0.15,,-0.76
2026-06-22 00:15:05.905,1.85,0.46,-0.85,0.1
2026-06-22 00:15:05.906,-1.56,0.25,-1.81,0.44
2026-06-22 00:15:05.907,-5.65,0.52,-0.65,-0.29
2026-06-22 00:15:05.908,-3.59,0.4,0.81,-1.05
2026-06-22 00:15:05.909,1.42,0.1,-0.4,1.25
2026-06-22 00:15:05.910,-3.23,-2.96,-0.85,2.73
2026-06-22 00:15:05.911,-5.7,-2.56,-0.21,-0.1
2026-06-22 00:15:05.912,-1.42,0.87,0.43,-2.27
2026-06-22 00:15:05.913,0.75,0.29,-0.04,-0.4
2026-06-22 00:15:05.914,2.6,0.74,0.05,2.43
2026-06-22 00:15:05.915,2.91,1.85,0.01,1.05
2026-06-22 00:15:05.916,3.19,0.51,1.4,1.2
2026-06-22 00:15:05.917,1.02,1.79,1.58,-0.02
2026-06-22 00:15:05.918,-0.95,1.7,-0.31,-2.15
2026-06-22 00:15:05.919,-1.68,0.04,-0.76,-1.81
2026-06-22 00:15:05.920,-1.63,-0.16,-0.36,-0.82
2026-06-22 00:15:05.921,0.88,-0.36,0.14,1.24
2026-06-22 00:15:05.922,1.17,-1.01,0.5,0.21
2026-06-22 00:15:05.923,0.43,-0.8,0.21,-1.39
2026-06-22 00:15:05.924,0.32,-0.99,-1.03,0.28
2026-06-22 00:15:05.925,-0.87,-0.32,0.32,1.19
2026-06-22 00:15:05.926,1.75,-0.08,1.36,1.12
2026-06-22 00:15:05.927,3.6,0.34,0.35,0.27
2026-06-22 00:15:05.928,1.88,0.09,-0.18,-0.6
2026-06-22 00:15:05.929,0.92,-1.3,0.19,0.9
2026-06-22 00:15:05.930,-3.24,-2.09,-0.15,-1.04
2026-06-22 00:15:05.931,-2.99,0.33,-0.03,-2.42
2026-06-22 00:15:05.932,-3.27,0.34,-0.18,-0.74
2026-06-22 00:15:05.933,-3.99,-1.27,-0.33,-0.36
2026-06-22 00:15:05.934,-1.97,0.37,-0.21,-0.19
2026-06-22 00:15:05.935,-0.13,0.7,-0.71,-0.04
2026-06-22 00:15:05.936,1.09,0.51,-0.16,-1.13
2026-06-22 00:15:05.937,5.09,-1.66,-1.14,-0.41
2026-06-22 00:15:05.930,4.16,-0.98,0.04,-0.46
2026-06-22 00:15:05.931,-3.78,1.53,2.61,0.98
2026-06-22 00:15:05.932,-2.49,0.4,0.02,2.7
2026-06-22 00:15:05.933,1.57,0.4,-0.24,1.49
2026-06-22 00:15:05.934,0.02,-0.18,0.57,1.34
2026-06-22 00:15:05.935,1.08,-1.12,-0.54,-1.46
2026-06-22 00:15:05.936,3.13,-0.7,-0.29,-2.31
2026-06-22 00:15:05.937,2.85,-1.73,-0.25,0.37
2026-06-22 00:15:05.938,0.29,0.82,-0.15,0.82
2026-06-22 00:15:05.939,-0.48,1.63,-0.22,1.77
2026-06-22 00:15:05.940,-0.42,2.84,0.14,2.78
2026-06-22 00:15:05.941,-4.49,5.29,0.36,0.16
2026-06-22 00:15:05.942,-3.64,2.54,0.5,-1.64
2026-06-22 00:15:05.943,-1.84,0.68,0.85,-1.25
2026-06-22 00:15:05.944,-0.79,-2.8,0.83,-1.29
2026-06-22 00:15:05.945,1.33,-6.5,2.3,-0.81
2026-06-22 00:15:05.946,0.81,-1.39,2.67,-0.83
2026-06-22 00:15:05.947,-0.5,0.09,-0.92,-2.8
2026-06-22 00:15:05.948,2.57,-3.45,-0.97,-0.67
2026-06-22 00:15:05.949,2.2,-1.64,-0.95,-0.27
2026-06-22 00:15:05.950,1.44,0.45,-2.38,-0.87
2026-06-22 00:15:05.951,2.48,0.6,-2.3,3.27
2026-06-22 00:15:05.952,-0.63,0.91,-1.87,2.8
2026-06-22 00:15:05.953,-0.74,1.2,-0.19,0.77
2026-06-22 00:15:05.954,1.52,0.56,1.56,1.78
2026-06-22 00:15:05.955,-0.48,0.4,0.32,1.32
2026-06-22 00:15:05.956,-1.77,-0.51,0.25,2.61
2026-06-22 00:15:05.957,1.64,-1.03,0.66,2.5
2026-06-22 00:15:05.958,-1.16,0.28,-0.19,-0.76
2026-06-22 00:15:05.959,0.01,0.74,-0.75,-1.85
2026-06-22 00:15:05.960,1.87,1.41,-1.4,-3.95
2026-06-22 00:15:05.961,-3.68,0.86,0.87,-2.1
2026-06-22 00:15:05.962,0.07,1.16,3.09,0.41
2026-06-22 00:15:05.963,2.85,3.48,2.21,-2.73
2026-06-22 00:15:05.964,0.06,1.53,0.71,-1.4
2026-06-22 00:15:05.965,0.34,-1.86,0.14,0.95
2026-06-22 00:15:05.966,-1.27,-1.62,-0.72,0.14
2026-06-22 00:15:05.967,-2.6,-0.03,-0.32,0.8
2026-06-22 00:15:05.968,-4.03,-0.05,-0.61,0.02
2026-06-22 00:15:05.969,-2.07,-4.37,-0.69,0.08
2026-06-22 00:15:05.970,-0.97,-5.32,0.25,-0.87
2026-06-22 00:15:05.971,-1.38,0.94,-0.19,-0.57
2026-06-22 00:15:05.972,-0.22,2.72,-0.54,1.58
2026-06-22 00:15:05.973,-0.81,0.75,-0.32,1.72
2026-06-22 00:15:05.974,0.1,1.15,0.12,1.02
2026-06-22 00:15:05.975,2.26,0.48,0.61,0.49
2026-06-22 00:15:05.976,3.36,-0.77,-1.04,0.41
2026-06-22 00:15:05.977,4.68,0.39,-0.61,0.62
2026-06-22 00:15:05.978,4.77,1.6,1.72,0.37
2026-06-22 00:15:05.979,2.48,1.27,-0.4,-1.03
2026-06-22 00:15:05.998,2.81,-0.53,-1.65,0.12
2026-06-22 00:15:05.999,1.03,-0.98,0.36,1.28
2026-06-22 00:15:06.000,-4.86,-0.11,-0.23,-0.46
2026-06-22 00:15:06.001,-4.27,-0.12,-0.5,0.87
2026-06-22 00:15:06.002,-1.1,0.36,1.3,1.02
2026-06-22 00:15:06.003,-2.43,0.57,-0.1,0.14
2026-06-22 00:15:06.004,-2.53,0.67,-1.69,1.99
2026-06-22 00:15:06.005,1.77,0.41,0.23,0.25
2026-06-22 00:15:06.006,2.82,0.73,-1.67,-2.05
2026-06-22 00:15:06.007,-0.57,1.14,0.14,-1.98
2026-06-22 00:15:06.008,0.04,0.47,2.2,-0.16
2026-06-22 00:15:06.009,-2.35,0.51,-1.63,-1.12
2026-06-22 00:15:06.010,-0.62,-0.02,0.24,-2.89
2026-06-22 00:15:06.011,2.35,0.96,2.83,-1.12
2026-06-22 00:15:06.012,-0.65,-1.43,0.85,0.55
2026-06-22 00:15:06.013,-0.51,-4.21,-2.23,0.43
2026-06-22 00:15:06.014,-0.27,-2.5,-0.2,-1.09
2026-06-22 00:15:06.015,-0.57,-1.75,3.57,0.35
2026-06-22 00:15:06.016,0.14,-0.56,-0.04,0.05
2026-06-22 00:15:06.017,-0.01,0.39,-1.41,2.81
2026-06-22 00:15:06.018,-0.95,0.11,1.33,3.45
2026-06-22 00:15:06.019,-2.28,0.75,0.05,-1.39
2026-06-22 00:15:06.020,0.68,0.85,-0.3,-0.5
2026-06-22 00:15:06.021,3.82,0.36,-0.41,0.25
2026-06-22 00:15:06.022,3.08,-0.17,-0.26,0.18
2026-06-22 00:15:06.023,0.72,0.92,0.56,0.33
2026-06-22 00:15:06.024,-0.3,1.61,-0.26,0.26
2026-06-22 00:15:06.025,1.04,0.01,-0.17,0.86
2026-06-22 00:15:06.026,-0.66,-2.77,-0.27,0.3
2026-06-22 00:15:06.027,-0.1,-1.53,-4.45,-2.92
2026-06-22 00:15:06.028,1.24,1.47,-6.59,-4.83
2026-06-22 00:15:06.029,-1.09,0.04,-0.9,1.97
2026-06-22 00:15:06.030,-5.02,0.19,4.58,4.8
2026-06-22 00:15:06.031,-4.42,1.48,3.6,-0.87
2026-06-22 00:15:06.032,-0.63,0.73,1.27,0.87
2026-06-22 00:15:06.033,-0.73,2.43,1.65,-0.43
2026-06-22 00:15:06.034,0.12,3.15,0.37,-3.78
2026-06-22 00:15:06.035,0.48,1.96,-0.64,-1.84
2026-06-22 00:15:06.036,1.17,4.75,0.23,0.64
2026-06-22 00:15:06.037,2.62,0.4,-1.45,2.17
2026-06-22 00:15:06.038,1.41,-5.19,-1.43,0.76
2026-06-22 00:15:06.039,0.4,-6.1,0.8,0.43
2026-06-22 00:15:06.040,0.74,-6.8,-0.12,3.4
2026-06-22 00:15:06.041,1.66,-1.67,-2.53,1.61
2026-06-22 00:15:06.042,1.52,1.08,0.4,-1.52
2026-06-22 00:15:06.043,3.22,1.19,2.84,-1.19
2026-06-22 00:15:06.044,1.29,2.83,1.8,-1.63
2026-06-22 00:15:06.045,0,0.51,1.9,-1.3
2026-06-22 00:15:06.046,-0.43,-0.11,0.67,-0.94
2026-06-22 00:15:06.047,-1.11,1.21,-1.89,-1.29
2026-06-22 00:15:06.036,-0.03,0.95,-1.9,-1.85
2026-06-22 00:15:06.037,-5.54,-0.56,-0.89,1.26
2026-06-22 00:15:06.038,-6.24,-0.24,-2.03,2.71
2026-06-22 00:15:06.039,-0.09,1.6,-0.55,-1.93
2026-06-22 00:15:06.040,0.25,-0.55,1.03,-0.43
2026-06-22 00:15:06.041,1.12,-0.82,-1.17,2.41
2026-06-22 00:15:06.042,2.5,0.9,-0.28,0.3
2026-06-22 00:15:06.043,0.99,-0.14,0.25,1.35
2026-06-22 00:15:06.044,0.54,0.45,0.22,0.46
2026-06-22 00:15:06.045,2.13,0.37,1.76,0.47
2026-06-22 00:15:06.046,0.72,-0.63,-1.17,1.3
2026-06-22 00:15:06.047,-1.21,0.25,-0.31,-1.46
2026-06-22 00:15:06.048,-1,-0.37,2.78,-0.65
2026-06-22 00:15:06.049,-1.43,0.42,0.77,-0.55
2026-06-22 00:15:06.050,1.28,1.16,-0.23,-1.46
2026-06-22 00:15:06.051,0.14,0.67,0.1,-1.08
2026-06-22 00:15:06.052,-1.23,0.13,-0.87,-0.59
2026-06-22 00:15:06.053,-1.95,0.05,-0.47,1.26
2026-06-22 00:15:06.054,-0.71,-0.19,-0.01,-0.55
2026-06-22 00:15:06.055,-0.27,-1.58,-0.24,-3.12
2026-06-22 00:15:06.056,-2.97,0.46,0.99,-1.19
2026-06-22 00:15:06.057,-0.7,0.43,-0.18,1.44
2026-06-22 00:15:06.058,2.48,-1.11,-1.04,2.34
2026-06-22 00:15:06.059,2.46,0.11,-0.1,2.12
2026-06-22 00:15:06.060,1.66,0.4,0.01,0.23
2026-06-22 00:15:06.061,2.6,0.08,0.15,-2.11
2026-06-22 00:15:06.062,1.12,-0.51,0.09,-1.06
2026-06-22 00:15:06.063,-0.28,0.28,0.51,1.34
2026-06-22 00:15:06.064,-0.55,-0.65,-0.01,-0.15
2026-06-22 00:15:06.065,-4.17,-1.78,-0.73,0.71
2026-06-22 00:15:06.066,-3.29,0.16,-0.19,2.17
2026-06-22 00:15:06.067,2.05,0.72,0.21,-1.06
2026-06-22 00:15:06.068,1.33,0.38,-0.4,-1.55
2026-06-22 00:15:06.069,1.13,0.66,1,0.93
2026-06-22 00:15:06.070,0.83,0.58,0.93,-1.28
2026-06-22 00:15:06.071,-0.78,0.52,0.01,-1.53
2026-06-22 00:15:06.072,1.3,-0.11,0.87,-0.23
2026-06-22 00:15:06.073,0.44,-0.5,0.26,-1.5
2026-06-22 00:15:06.074,-2.37,-0.13,-0.5,1.27
2026-06-22 00:15:06.075,-3.23,0.01,-0.46,1.67
2026-06-22 00:15:06.076,-1.51,0.58,-0.24,0.61
2026-06-22 00:15:06.077,1.67,0.53,-0.29,2.03
2026-06-22 00:15:06.078,1.51,0.45,0.78,2
2026-06-22 00:15:06.079,0.62,-0.41,1.71,-0.46
2026-06-22 00:15:06.080,0.34,-1.33,-0.07,-0.97
2026-06-22 00:15:06.081,-0.23,-0.3,-1.46,0.25
2026-06-22 00:15:06.082,1.97,-0.01,-0.39,-0.54
2026-06-22 00:15:06.083,2.32,-1.62,-0.45,-2.44
2026-06-22 00:15:06.084,3.38,-0.98,-1.7,-1.37
2026-06-22 00:15:06.085,2.25,0.21,-0.92,-1.74
2026-06-22 00:15:06.079,-1.45,-0.29,-1.7,-0.72
2026-06-22 00:15:06.080,-1.07,0.52,-0.57,0.07
2026-06-22 00:15:06.081,-0.81,1.2,2.53,0.71
2026-06-22 00:15:06.082,-1.23,-0.94,-0.79,4.35
2026-06-22 00:15:06.083,-0.36,-0.28,-0.73,3.78
2026-06-22 00:15:06.084,0.57,1.32,3.48,2.68
2026-06-22 00:15:06.085,-1.87,-0.2,3.72,-0.84
2026-06-22 00:15:06.086,-2.7,0.48,1.33,-3.57
2026-06-22 00:15:06.087,-0.5,0.43,-1.51,-0.79
2026-06-22 00:15:06.088,0.01,-0.32,-2.13,0.32
2026-06-22 00:15:06.089,0.87,1.97,-1.07,-2.67
2026-06-22 00:15:06.090,0.02,2.75,1.14,-0.57
2026-06-22 00:15:06.091,-1,1.28,-0.08,1.76
2026-06-22 00:15:06.092,2.78,0.39,0.03,1.64
2026-06-22 00:15:06.093,0.76,-1.02,1.55,-1.03
2026-06-22 00:15:06.094,-3.06,-0.95,-1.1,-0.35
2026-06-22 00:15:06.095,-1.43,-3.58,-0.51,3.26
2026-06-22 00:15:06.096,-1.89,-4.71,0.76,2.08
2026-06-22 00:15:06.097,0.93,-0.27,-0.14,-1.3
2026-06-22 00:15:06.098,2.32,0.07,-0.54,-4.59
2026-06-22 00:15:06.099,-0.13,0.09,0.11,-2.06
2026-06-22 00:15:06.100,1.98,2.17,-0.33,-0.16
2026-06-22 00:15:06.101,0.93,1.12,-3.03,-2.43
2026-06-22 00:15:06.102,0.43,1.37,-2.53,-0.68
2026-06-22 00:15:06.103,1.81,0.31,-0.01,1.5
2026-06-22 00:15:06.104,1.11,-0.92,0.68,3.62
2026-06-22 00:15:06.105,2.29,0.29,1.52,4.83
2026-06-22 00:15:06.106,0.57,0.57,0.44,-1.34
2026-06-22 00:15:06.107,-1.79,1.16,0,-1.34
2026-06-22 00:15:06.108,-2.62,-0.59,0.16,1.76
2026-06-22 00:15:06.109,-2.54,-1.97,-0.76,-2.46
2026-06-22 00:15:06.110,-0.67,-0.14,-1.59,-5.26
2026-06-22 00:15:06.111,-0.12,0.24,-0.01,0.51
2026-06-22 00:15:06.112,0.74,0.52,2.41,2.4
2026-06-22 00:15:06.113,0.55,0.73,-0.33,2.14
2026-06-22 00:15:06.114,-0.68,-0.34,-0.39,2.58
2026-06-22 00:15:06.115,-0.2,-0.23,2.4,0.1
2026-06-22 00:15:06.116,-0.32,-0.4,0.7,-0.32
2026-06-22 00:15:06.117,-0.75,-0.21,0.75,-0.96
2026-06-22 00:15:06.118,0.22,-0.43,-0.17,-0.81
2026-06-22 00:15:06.119,0.33,-0.09,-0.68,-1.68
2026-06-22 00:15:06.120,0.87,-0.45,-0.35,-0.57
2026-06-22 00:15:06.121,0.66,-0.76,-0.61,1.54
2026-06-22 00:15:06.122,-0.36,-0.4,1.25,1.07
2026-06-22 00:15:06.123,1.21,-0.82,0.76,-2.03
2026-06-22 00:15:06.124,2.28,-0.22,-0.11,-4.72
2026-06-22 00:15:06.125,0.14,-0.33,-0.39,-2.62
2026-06-22 00:15:06.126,-0.18,2.54,0.21,-1.22
2026-06-22 00:15:06.127,2.45,4.07,-1.58,-1.09
2026-06-22 00:15:06.128,-0.43,2.06,-2.72,2.41
2026-06-22 00:15:06.133,-4.2,2.54,-1.83,3.64
2026-06-22 00:15:06.134,-6.46,-1.31,1.33,2.41
2026-06-22 00:15:06.135,-5.59,-4.22,3.99,1.98
2026-06-22 00:15:06.136,2.4,-1.62,0.15,-1.59
2026-06-22 00:15:06.137,3.52,-0.57,-0.95,-2.26
2026-06-22 00:15:06.138,0.53,-0.14,1.1,0.02
2026-06-22 00:15:06.139,1.26,-0.47,-1.01,0.71
2026-06-22 00:15:06.140,-2.48,-0.08,-0.79,2.69
2026-06-22 00:15:06.141,-1.31,-0.52,0.14,0.36
2026-06-22 00:15:06.142,-0.13,-1.47,-0.92,-0.85
2026-06-22 00:15:06.143,-1.29,0.28,0.34,2.19
2026-06-22 00:15:06.144,1.68,1.09,0.57,0.8
2026-06-22 00:15:06.145,1.64,1.2,0.33,0.67
2026-06-22 00:15:06.146,2.04,0.45,2.39,1.28
2026-06-22 00:15:06.147,1.94,-1.12,0.69,0.59
2026-06-22 00:15:06.148,-0.29,-0.11,-1.02,-1.44
2026-06-22 00:15:06.149,1.81,0.38,1.04,-2.07
2026-06-22 00:15:06.150,1.91,-0.75,0.15,0.02
2026-06-22 00:15:06.151,-0.57,0.34,-0.62,-0.5
2026-06-22 00:15:06.152,2.49,0.7,-1.42,-2.16
2026-06-22 00:15:06.153,0.96,0.36,-1.23,-3
2026-06-22 00:15:06.154,-2.42,0.46,0.03,-1.78
2026-06-22 00:15:06.155,-1.57,0.29,-0.18,-2.73
2026-06-22 00:15:06.156,-1.95,0.28,-0.14,-2.95
2026-06-22 00:15:06.157,-0.41,0.16,0.03,-0.55
2026-06-22 00:15:06.158,0.92,0.22,-0.32,0.29
2026-06-22 00:15:06.159,-0.87,-0.84,0.21,2.22
2026-06-22 00:15:06.160,-2.55,-1.29,1.16,3.97
2026-06-22 00:15:06.161,-2.31,-0.22,0.2,4.08
2026-06-22 00:15:06.162,0.07,0.43,-0.38,3.63
2026-06-22 00:15:06.163,-0.9,-0.31,-0.87,-0.55
2026-06-22 00:15:06.164,-2.02,-1.06,-1.08,-1.31
2026-06-22 00:15:06.165,1.3,-0.27,-0.45,1.43
2026-06-22 00:15:06.166,2.32,0.57,1.38,2.55
2026-06-22 00:15:06.167,0.32,0.68,2.4,0.82
2026-06-22 00:15:06.168,0.02,0.54,0.5,2.65
2026-06-22 00:15:06.169,2.62,0.03,-0.91,4.83
2026-06-22 00:15:06.170,1.7,0.49,-0.54,2.95
2026-06-22 00:15:06.171,-0.54,0.1,0.82,3.4
2026-06-22 00:15:06.172,-0.09,-0.37,0.73,1.59
2026-06-22 00:15:06.173,1.29,0.12,-0.52,-1.64
2026-06-22 00:15:06.174,3.3,0.26,-1.17,-1.96
2026-06-22 00:15:06.175,1.37,0.13,-0.26,-3.42
2026-06-22 00:15:06.176,-0.46,0.07,0.23,-5.62
2026-06-22 00:15:06.177,-0.17,0.14,-0.1,-7.04
2026-06-22 00:15:06.178,-1.78,-0.08,0.27,-5.56
2026-06-22 00:15:06.179,-0.47,-0.63,-0.22,-4.81
2026-06-22 00:15:06.180,0.77,-0.09,-1.06,-7.82
2026-06-22 00:15:06.181,0.08,0.19,-0.5,-4.03
2026-06-22 00:15:06.182,2.08,-0.8,-1.63,-3.02
2026-06-22 00:15:06.179,-0.55,-1.29,-2.46,-2.91
2026-06-22 00:15:06.180,-3.81,-0.69,1.05,7.55
2026-06-22 00:15:06.181,-2.93,0.5,3.56,12.43
2026-06-22 00:15:06.182,0.52,0.2,0.43,6.64
2026-06-22 00:15:06.183,1.94,-0.04,0.16,5.67
2026-06-22 00:15:06.184,-0.38,0.26,0.32,2.57
2026-06-22 00:15:06.185,0.37,0.16,-1.34,0.14
2026-06-22 00:15:06.186,0.53,0.36,-0.45,0.82
2026-06-22 00:15:06.187,-1.08,1.05,-1.41,0.74
2026-06-22 00:15:06.188,-1.96,0.41,-0.19,1.38
2026-06-22 00:15:06.189,-0.36,1.15,1.67,-2.03
2026-06-22 00:15:06.190,2.93,0.36,-0.01,-1.52
2026-06-22 00:15:06.191,0.72,-0.41,1.15,-2.1
2026-06-22 00:15:06.192,-0.75,2.12,3.26,-2.87
2026-06-22 00:15:06.193,-0.95,-0.8,1.55,0.15
2026-06-22 00:15:06.194,-0.97,-3.09,1.24,-0.22
2026-06-22 00:15:06.195,0.84,0.38,-0.58,0.28
2026-06-22 00:15:06.196,1.23,-0.45,-3.14,-1.57
2026-06-22 00:15:06.197,2.12,-1.2,-1.01,-0.95
2026-06-22 00:15:06.198,-0.05,1.12,0.98,0.83
2026-06-22 00:15:06.199,-0.14,0.42,0.13,-2.4
2026-06-22 00:15:06.200,1.03,-0.36,1.1,-1.79
2026-06-22 00:15:06.201,0.9,-0.29,-0.67,-2.71
2026-06-22 00:15:06.202,0.79,-0.32,-3.65,-2.96
2026-06-22 00:15:06.203,-1.64,0.78,-0.6,0.27
2026-06-22 00:15:06.204,-2.44,1.2,1.59,0.9
2026-06-22 00:15:06.205,-1.2,0.27,0.32,0.5
2026-06-22 00:15:06.206,1.06,0.32,0.48,2.68
2026-06-22 00:15:06.207,1.59,0.38,-1.47,3.46
2026-06-22 00:15:06.208,-0.37,0.26,-2.07,3.05
2026-06-22 00:15:06.209,-0.38,0.32,-0.13,1.99
2026-06-22 00:15:06.210,-2.19,1,1.7,-0.9
2026-06-22 00:15:06.211,-2.14,-0.8,2.13,-2.46
2026-06-22 00:15:06.212,-0.76,-3.19,-0.29,0.22
2026-06-22 00:15:06.213,-0.44,-1.14,-0.17,1.62
2026-06-22 00:15:06.214,0.75,1.41,-0.9,-0.85
2026-06-22 00:15:06.215,-0.54,0.99,0.92,-0.94
2026-06-22 00:15:06.216,0.25,0.37,3.47,-0.94
2026-06-22 00:15:06.217,0.97,-0.02,0.06,-4.03
2026-06-22 00:15:06.218,-0.09,-0.63,-1.46,-3.36
2026-06-22 00:15:06.219,-0.43,-0.79,-0.46,0.26
2026-06-22 00:15:06.220,-0.52,0.01,0.32,-0.9
2026-06-22 00:15:06.221,0.05,0.15,-1.15,0.59
2026-06-22 00:15:06.222,0.53,-0.08,-1.04,1.86
2026-06-22 00:15:06.223,0.68,-0.43,2.24,0.89
2026-06-22 00:15:06.224,1.53,-0.18,-1.23,1.51
2026-06-22 00:15:06.225,2.14,0.62,-1.75,3.64
2026-06-22 00:15:06.226,1.74,0.45,0.63,5.91
2026-06-22 00:15:06.227,2.04,0.88,-1.71,6.68
2026-06-22 00:15:06.228,1.16,-0.65,0.52,2.55
2026-06-22 00:15:06.232,-1.54,-1.34,3.06,-0.29
2026-06-22 00:15:06.233,-3.44,0.73,2.21,3.08
2026-06-22 00:15:06.234,-3.81,0.9,-0.11,-1.18
2026-06-22 00:15:06.235,-3.99,0.79,-1.68,-10.78
2026-06-22 00:15:06.236,-3.25,0.52,-1.41,-10.3
2026-06-22 00:15:06.237,-0.61,-0.63,-1.68,-4.56
2026-06-22 00:15:06.238,1.12,-0.55,-0.99,-1.96
2026-06-22 00:15:06.239,1.28,-0.45,-1.92,-2.43
2026-06-22 00:15:06.240,1.48,0.23,-0.56,-3.78
2026-06-22 00:15:06.241,0.48,-0.33,1.83,1
2026-06-22 00:15:06.242,-0.36,-0.3,0.33,5.54
2026-06-22 00:15:06.243,0.52,-0.23,0.41,6.73
2026-06-22 00:15:06.244,2.25,0.99,-0.01,5.64
2026-06-22 00:15:06.245,0.38,-0.15,0.13,4.54
2026-06-22 00:15:06.246,-1.54,-1.8,1.22,1.39
2026-06-22 00:15:06.247,-0.67,0.15,1.48,-0.69
2026-06-22 00:15:06.248,-0.67,-0.05,1.94,0.21
2026-06-22 00:15:06.249,1.77,-0.04,-0.59,-1.47
2026-06-22 00:15:06.250,1.51,0.43,-1.67,-2.13
2026-06-22 00:15:06.251,1.92,-0.33,-0.5,-2.38
2026-06-22 00:15:06.252,2.7,-0.78,-0.32,-3.01
2026-06-22 00:15:06.253,-1.45,-1.84,-0.47,-5.28
2026-06-22 00:15:06.254,-1.36,-1.14,0.27,-4.28
2026-06-22 00:15:06.255,-1.96,-0.32,-0.58,-0.68
2026-06-22 00:15:06.256,-1.05,-1.48,-2.46,1.02
2026-06-22 00:15:06.257,0.05,-0.59,-0.56,3.07
2026-06-22 00:15:06.258,-0.92,-0.23,0.78,4.32
2026-06-22 00:15:06.259,2.62,1.6,0.43,4.65
2026-06-22 00:15:06.260,1.19,4.58,0.6,3.82
2026-06-22 00:15:06.261,-0.58,4.65,-0.25,4.33
2026-06-22 00:15:06.262,-0.99,6.94,0.4,4.8
2026-06-22 00:15:06.263,-1.2,3.73,0.6,0.3
2026-06-22 00:15:06.264,0.62,-4.11,0.16,-1.45
2026-06-22 00:15:06.265,-2.37,-2.21,0.69,-1.22
2026-06-22 00:15:06.266,-4.67,-1.33,-0.2,-1.52
2026-06-22 00:15:06.267,0.85,-3.72,0.08,-3.43
2026-06-22 00:15:06.268,1.32,-3.76,1.08,-5.83
2026-06-22 00:15:06.269,-0.91,-2.46,-1.55,-2.35
2026-06-22 00:15:06.270,1.93,0.07,-0.45,-2.75
2026-06-22 00:15:06.271,2.42,0.83,1.34,-3.9
2026-06-22 00:15:06.272,0.39,1.34,-0.33,-0.35
2026-06-22 00:15:06.273,-0.06,1.25,0.48,1.96
2026-06-22 00:15:06.274,1.25,0.24,-0.52,0.07
2026-06-22 00:15:06.275,1.15,-0.06,-0.95,-0.04
2026-06-22 00:15:06.276,1.12,0.85,0,1.76
2026-06-22 00:15:06.277,1.22,1,-0.09,1.33
2026-06-22 00:15:06.278,-1.1,-0.87,-0.16,-0.49
2026-06-22 00:15:06.279,-1.23,-0.09,0.66,-0.07
2026-06-22 00:15:06.280,2.75,0.56,0.55,1.34
2026-06-22 00:15:06.281,3.25,-0.2,-0.31,-2.53
2026-06-22 00:15:06.279,1.87,0.56,-0.18,-1.99
2026-06-22 00:15:06.280,-2.05,0.49,0.18,3.19
2026-06-22 00:15:06.281,-2.9,-0.97,0.85,1.73
2026-06-22 00:15:06.282,0.61,-1.15,0.64,-2.18
2026-06-22 00:15:06.283,1.02,-1.03,-0.48,-1.88
2026-06-22 00:15:06.284,-1.02,0.42,-0.35,-3.13
2026-06-22 00:15:06.285,-3.1,0.33,0.5,-3.1
2026-06-22 00:15:06.286,-1.64,-0.53,0.46,2.09
2026-06-22 00:15:06.287,-0.86,0.11,-0.2,4.11
2026-06-22 00:15:06.288,-1.31,-0.21,-0.95,2.97
2026-06-22 00:15:06.289,0.77,0.06,-0.18,2.62
2026-06-22 00:15:06.290,3.2,-2.63,0.98,5.51
2026-06-22 00:15:06.291,0.03,2.82,-0.29,3
2026-06-22 00:15:06.292,-2.79,8.54,-0.1,2.42
2026-06-22 00:15:06.293,-0.73,0.5,-0.53,5.84
2026-06-22 00:15:06.294,1.68,-3.18,1.26,-5.14
2026-06-22 00:15:06.295,-0.02,-1.59,4.36,-4.32
2026-06-22 00:15:06.296,-0.86,-2.49,-1.96,5.71
2026-06-22 00:15:06.297,2.1,-1.06,-3.86,-1.07
2026-06-22 00:15:06.298,2.72,-0.28,-0.1,-4.18
2026-06-22 00:15:06.299,1.84,0.44,-0.09,-1.07
2026-06-22 00:15:06.300,1.05,0.27,1.25,-2.35
2026-06-22 00:15:06.301,-1.06,-0.31,-0.03,-2.82
2026-06-22 00:15:06.302,-1.07,-0.05,-0.32,-2.53
2026-06-22 00:15:06.303,0.72,-0.19,0.6,-2.72
2026-06-22 00:15:06.304,-1.63,-0.53,-0.26,-0.53
2026-06-22 00:15:06.305,-2.08,0.01,0.53,0.01
2026-06-22 00:15:06.306,-1.78,1.18,-0.37,-0.72
2026-06-22 00:15:06.307,0.08,-0.71,-0.22,1.93
2026-06-22 00:15:06.308,1.99,0.51,-0.58,0.08
2026-06-22 00:15:06.309,1.59,0.76,-0.18,-0.61
2026-06-22 00:15:06.310,0.99,-2.08,1.74,0.13
2026-06-22 00:15:06.311,-1.95,-0.71,0.38,-0.8
2026-06-22 00:15:06.312,-2.24,-0.13,-0.44,0.5
2026-06-22 00:15:06.313,-1.38,-1.25,-0.06,-0.5
2026-06-22 00:15:06.314,-0.46,0.21,-0.23,-0.31
2026-06-22 00:15:06.315,1.17,-0.44,-0.46,0.48
2026-06-22 00:15:06.316,1.39,-0.72,-0.18,1.78
2026-06-22 00:15:06.317,-0.14,0.28,-0.84,1.57
2026-06-22 00:15:06.318,-1.73,0.95,-0.3,-0.21
2026-06-22 00:15:06.319,0.62,0.25,0.53,1.45
2026-06-22 00:15:06.320,-0.08,0.4,-0.75,2.72
2026-06-22 00:15:06.321,-0.79,1.94,-0.98,-0.05
2026-06-22 00:15:06.322,1.89,0.58,-1.54,-0.06
2026-06-22 00:15:06.323,2.23,-0.93,0.16,1.66
2026-06-22 00:15:06.324,0.95,0.67,4.27,0.05
2026-06-22 00:15:06.325,-0.76,0.92,1.06,0.42
2026-06-22 00:15:06.326,1.27,-0.93,-0.71,0.39
2026-06-22 00:15:06.327,0.61,0.47,0.16,-0.93
2026-06-22 00:15:06.328,0.16,-1.39,-0.62,-1.4
2026-06-22 00:15:06.334,1.16,-1.61,-0.54,-3.56
2026-06-22 00:15:06.335,-3.22,2.17,-2.26,-0.63
