# participant=P001 | sex=male | age=22 | weight_kg=68 | height_cm=175
# exercise=cycling | trial_no=1 | label=cycling | session=2026-06-20T19:11:50.113Z | tz=Asia/Calcutta
datetime_local,muscle1_raw_mV,muscle2_raw_mV,muscle3_raw_mV,muscle4_raw_mV
2026-06-21 00:41:50.067,,1129,,
2026-06-21 00:41:50.068,,1125,,
2026-06-21 00:41:50.069,,1129,,
2026-06-21 00:41:50.070,,1126.6,,
2026-06-21 00:41:50.071,,1127.4,,
2026-06-21 00:41:50.072,,1125,,
2026-06-21 00:41:50.073,,1126.6,,
2026-06-21 00:41:50.074,,1127.4,,
2026-06-21 00:41:50.075,,1126.6,,
2026-06-21 00:41:50.076,,1129,,
2026-06-21 00:41:50.077,,1125,,
2026-06-21 00:41:50.078,,1128.2,,
2026-06-21 00:41:50.079,,1129,,
2026-06-21 00:41:50.080,,1126.6,,1426.4
2026-06-21 00:41:50.081,,1125,,1424
2026-06-21 00:41:50.082,,1129.8,,1423.2
2026-06-21 00:41:50.083,,1129,,1424.8
2026-06-21 00:41:50.084,,1128.2,,1425.6
2026-06-21 00:41:50.085,,1129.8,,1426.4
2026-06-21 00:41:50.086,,1129,,1427.2
2026-06-21 00:41:50.087,,1128.2,,1427.2
2026-06-21 00:41:50.088,,1130.6,,1427.2
2026-06-21 00:41:50.089,,1126.6,,1428
2026-06-21 00:41:50.090,,1128.2,,1428.8
2026-06-21 00:41:50.091,,1130.6,,1426.4
2026-06-21 00:41:50.092,,1129,,1426.4
2026-06-21 00:41:50.093,,1126.6,,1426.4
2026-06-21 00:41:50.094,,1125,,1426.4
2026-06-21 00:41:50.095,,1130.6,,1420.7
2026-06-21 00:41:50.096,,1130.6,,1420.7
2026-06-21 00:41:50.097,,1126.6,,1420.7
2026-06-21 00:41:50.098,,1130.6,,1424.8
2026-06-21 00:41:50.099,,1129,,1427.2
2026-06-21 00:41:50.100,,1130.6,,1424
2026-06-21 00:41:50.101,,1133,,1425.6
2026-06-21 00:41:50.102,,1129.8,,1427.2
2026-06-21 00:41:50.103,,1129,,1427.2
2026-06-21 00:41:50.104,,1132.2,,1427.2
2026-06-21 00:41:50.105,,1126.6,,1427.2
2026-06-21 00:41:50.099,1399.8,1125,,1427.2
2026-06-21 00:41:50.100,1395.8,1129,,1426.4
2026-06-21 00:41:50.101,1394.9,1129,,1423.2
2026-06-21 00:41:50.102,1395.8,1126.6,1348.2,1427.2
2026-06-21 00:41:50.103,1397.4,1129,1352.2,1427.2
2026-06-21 00:41:50.104,1399.8,1125,1349.8,1427.2
2026-06-21 00:41:50.105,1396.6,1129.8,1352.2,1428
2026-06-21 00:41:50.106,1396.6,1128.2,1354.7,1428.8
2026-06-21 00:41:50.107,1399,1130.6,1351.4,1427.2
2026-06-21 00:41:50.108,1397.4,1128.2,1352.2,1426.4
2026-06-21 00:41:50.109,1399,1128.2,1352.2,1427.2
2026-06-21 00:41:50.110,1399,1125.8,1351.4,1427.2
2026-06-21 00:41:50.111,1399,1126.6,1352.2,1426.4
2026-06-21 00:41:50.112,1399,1125,1353,1427.2
2026-06-21 00:41:50.113,1399,1125,1353,1427.2
2026-06-21 00:41:50.114,1399,1125.8,1354.7,1428
2026-06-21 00:41:50.115,1399.8,1129,1353,1427.2
2026-06-21 00:41:50.116,1399,1128.2,1353.8,1426.4
2026-06-21 00:41:50.117,1399,1129,1352.2,1428
2026-06-21 00:41:50.118,1399,1127.4,1351.4,1427.2
2026-06-21 00:41:50.119,1398.2,1126.6,1352.2,1426.4
2026-06-21 00:41:50.120,1398.2,1125.8,1354.7,1427.2
2026-06-21 00:41:50.121,1399,1125,1353.8,1427.2
2026-06-21 00:41:50.122,1403,1128.2,1353,1427.2
2026-06-21 00:41:50.123,1399.8,1128.2,1353,1426.4
2026-06-21 00:41:50.124,1398.2,1125,1351.4,1425.6
2026-06-21 00:41:50.125,1399.8,1126.6,1354.7,1424
2026-06-21 00:41:50.126,1399.8,1129,1354.7,1427.2
2026-06-21 00:41:50.127,1399,1129,1355.5,1425.6
2026-06-21 00:41:50.128,1399,1128.2,1355.5,1425.6
2026-06-21 00:41:50.129,1401.4,1126.6,1353,1426.4
2026-06-21 00:41:50.130,1401.4,1128.2,1355.5,1426.4
2026-06-21 00:41:50.131,1400.6,1125.8,1354.7,1425.6
2026-06-21 00:41:50.132,1397.4,1129,1355.5,1427.2
2026-06-21 00:41:50.133,1399,1129,1352.2,1427.2
2026-06-21 00:41:50.134,1399,1125,1352.2,1425.6
2026-06-21 00:41:50.135,1401.4,1128.2,1352.2,1427.2
2026-06-21 00:41:50.136,1399,1128.2,1355.5,1427.2
2026-06-21 00:41:50.137,1397.4,1126.6,1354.7,1427.2
2026-06-21 00:41:50.138,1401.4,1125.8,1353,1428.8
2026-06-21 00:41:50.139,1399,1129,1355.5,1427.2
2026-06-21 00:41:50.140,1399.8,1129,1355.5,1427.2
2026-06-21 00:41:50.141,1402.2,1125.8,1353.8,1425.6
2026-06-21 00:41:50.142,1399.8,1129.8,1353,1425.6
2026-06-21 00:41:50.143,1399.8,1126.6,1352.2,1423.2
2026-06-21 00:41:50.144,1399.8,1128.2,1355.5,1422.3
2026-06-21 00:41:50.145,1399.8,1122.6,1353,1424
2026-06-21 00:41:50.146,1399,1131.4,1354.7,1428
2026-06-21 00:41:50.147,1399,1129.8,1355.5,1427.2
2026-06-21 00:41:50.148,1399.8,1129,1353.8,1427.2
2026-06-21 00:41:50.136,1399,1130.6,1355.5,1423.2
2026-06-21 00:41:50.137,1396.6,1127.4,1354.7,1428
2026-06-21 00:41:50.138,1396.6,1132.2,1353.8,1427.2
2026-06-21 00:41:50.139,1394.9,1126.6,1355.5,1428
2026-06-21 00:41:50.140,1394.9,1126.6,1351.4,1427.2
2026-06-21 00:41:50.141,1396.6,1130.6,1351.4,1427.2
2026-06-21 00:41:50.142,1399,1130.6,1348.2,1426.4
2026-06-21 00:41:50.143,1396.6,1129.8,1349,1427.2
2026-06-21 00:41:50.144,1396.6,1129,1350.6,1427.2
2026-06-21 00:41:50.145,1398.2,1129,1353,1427.2
2026-06-21 00:41:50.146,1397.4,1131.4,1353,1427.2
2026-06-21 00:41:50.147,1398.2,1121,1351.4,1427.2
2026-06-21 00:41:50.148,1396.6,1124.2,1353,1427.2
2026-06-21 00:41:50.149,1401.4,1127.4,1353.8,1427.2
2026-06-21 00:41:50.150,1397.4,1128.2,1355.5,1427.2
2026-06-21 00:41:50.151,1399,1121.8,1354.7,1427.2
2026-06-21 00:41:50.152,1399,1125,1355.5,1427.2
2026-06-21 00:41:50.153,1399,1126.6,1355.5,1427.2
2026-06-21 00:41:50.154,1398.2,1126.6,1352.2,1427.2
2026-06-21 00:41:50.155,1398.2,1126.6,1352.2,1427.2
2026-06-21 00:41:50.156,1399,1129,1353.8,1427.2
2026-06-21 00:41:50.157,1399,1129,1353.8,1427.2
2026-06-21 00:41:50.158,1399,1128.2,1353.8,1426.4
2026-06-21 00:41:50.159,1401.4,1124.2,1351.4,1426.4
2026-06-21 00:41:50.160,1399.8,1126.6,1349,1427.2
2026-06-21 00:41:50.161,1399.8,1128.2,1353.8,1425.6
2026-06-21 00:41:50.162,1397.4,1128.2,1354.7,1423.2
2026-06-21 00:41:50.163,1402.2,1126.6,1353,1427.2
2026-06-21 00:41:50.164,1403,1127.4,1353.8,1424
2026-06-21 00:41:50.165,1401.4,1130.6,1353,1426.4
2026-06-21 00:41:50.166,1401.4,1129,1354.7,1427.2
2026-06-21 00:41:50.167,1399,1132.2,1354.7,1427.2
2026-06-21 00:41:50.168,1399.8,1129,1355.5,1427.2
2026-06-21 00:41:50.169,1399,1129,1355.5,1424
2026-06-21 00:41:50.170,1399,1129,1355.5,1426.4
2026-06-21 00:41:50.171,1399,1126.6,1352.2,1422.3
2026-06-21 00:41:50.172,1399,1125.8,1355.5,1424.8
2026-06-21 00:41:50.173,1398.2,1127.4,1355.5,1426.4
2026-06-21 00:41:50.174,1399,1128.2,1353,1426.4
2026-06-21 00:41:50.175,1399.8,1129,1353.8,1426.4
2026-06-21 00:41:50.176,1398.2,1129,1353.8,1426.4
2026-06-21 00:41:50.177,1399,1129,1354.7,1425.6
2026-06-21 00:41:50.178,1399,1124.2,1354.7,1427.2
2026-06-21 00:41:50.179,1403,1126.6,1355.5,1426.4
2026-06-21 00:41:50.180,1403,1132.2,1354.7,1427.2
2026-06-21 00:41:50.181,1402.2,1129,1354.7,1428.8
2026-06-21 00:41:50.182,1399,1126.6,1353,1427.2
2026-06-21 00:41:50.183,1403,1130.6,1353,1426.4
2026-06-21 00:41:50.184,1399,1125.8,1355.5,1427.2
2026-06-21 00:41:50.185,1399.8,1129,1355.5,1427.2
2026-06-21 00:41:50.197,1399.8,1127.4,1353,1426.4
2026-06-21 00:41:50.198,1398.2,1129,1353,1427.2
2026-06-21 00:41:50.199,1395.8,1129,1353.8,1426.4
2026-06-21 00:41:50.200,1394.9,1127.4,1355.5,1427.2
2026-06-21 00:41:50.201,1399.8,1130.6,1349,1427.2
2026-06-21 00:41:50.202,1396.6,1129.8,1350.6,1427.2
2026-06-21 00:41:50.203,1399,1129.8,1352.2,1426.4
2026-06-21 00:41:50.204,1394.9,1131.4,1349,1427.2
2026-06-21 00:41:50.205,1395.8,1126.6,1350.6,1427.2
2026-06-21 00:41:50.206,1399,1129,1351.4,1427.2
2026-06-21 00:41:50.207,1399,1129,1353,1427.2
2026-06-21 00:41:50.208,1399,1124.2,1350.6,1427.2
2026-06-21 00:41:50.209,1397.4,1124.2,1353.8,1427.2
2026-06-21 00:41:50.210,1397.4,1129,1355.5,1427.2
2026-06-21 00:41:50.211,1399,1128.2,1353,1427.2
2026-06-21 00:41:50.212,1399.8,1128.2,1353.8,1427.2
2026-06-21 00:41:50.213,1398.2,1127.4,1353,1427.2
2026-06-21 00:41:50.214,1396.6,1127.4,1353,1428.8
2026-06-21 00:41:50.215,1399.8,1129,1353.8,1429.6
2026-06-21 00:41:50.216,1399,1129,1353.8,1428
2026-06-21 00:41:50.217,1402.2,1130.6,1354.7,1428
2026-06-21 00:41:50.218,1403,1125.8,1353,1427.2
2026-06-21 00:41:50.219,1399,1129,1353,1427.2
2026-06-21 00:41:50.220,1399,1129,1353,1427.2
2026-06-21 00:41:50.221,1399,1129,1355.5,1427.2
2026-06-21 00:41:50.222,1399,1129,1353,1424.8
2026-06-21 00:41:50.223,1399,1125.8,1353,1426.4
2026-06-21 00:41:50.224,1401.4,1128.2,1353,1424
2026-06-21 00:41:50.225,1402.2,1129.8,1353,1424
2026-06-21 00:41:50.226,1399.8,1132.2,1353,1427.2
2026-06-21 00:41:50.227,1399.8,1125.8,1351.4,1426.4
2026-06-21 00:41:50.228,1399,1131.4,1353.8,1427.2
2026-06-21 00:41:50.229,1398.2,1128.2,1354.7,1430.4
2026-06-21 00:41:50.230,1399.8,1129,1354.7,1428.8
2026-06-21 00:41:50.231,1399,1131.4,1354.7,1427.2
2026-06-21 00:41:50.232,1399.8,1129,1353,1427.2
2026-06-21 00:41:50.233,1399,1129,1355.5,1424
2026-06-21 00:41:50.234,1399,1130.6,1354.7,1424
2026-06-21 00:41:50.235,1399,1126.6,1353,1424.8
2026-06-21 00:41:50.236,1399.8,1125.8,1353,1422.3
2026-06-21 00:41:50.237,1399,1126.6,1354.7,1417.5
2026-06-21 00:41:50.238,1401.4,1129.8,1353.8,1417.5
2026-06-21 00:41:50.239,1399,1125.8,1353.8,1423.2
2026-06-21 00:41:50.240,1401.4,1129,1355.5,1425.6
2026-06-21 00:41:50.241,1401.4,1125.8,1355.5,1427.2
2026-06-21 00:41:50.242,1399,1130.6,1353,1427.2
2026-06-21 00:41:50.243,1399,1129,1354.7,1427.2
2026-06-21 00:41:50.244,1403,1129,1353,1427.2
2026-06-21 00:41:50.245,1399.8,1131.4,1354.7,1426.4
2026-06-21 00:41:50.246,1399,1129,1355.5,1427.2
2026-06-21 00:41:50.234,1399,1125.8,1353.8,1427.2
2026-06-21 00:41:50.235,1394.9,1129,1353,1427.2
2026-06-21 00:41:50.236,1394.9,1129,1353.8,1427.2
2026-06-21 00:41:50.237,1396.6,1131.4,1353,1429.6
2026-06-21 00:41:50.238,1397.4,1129.8,1351.4,1427.2
2026-06-21 00:41:50.239,1397.4,1129,1351.4,1427.2
2026-06-21 00:41:50.240,1395.8,1129,1350.6,1427.2
2026-06-21 00:41:50.241,1394.9,1129.8,1349,1427.2
2026-06-21 00:41:50.242,1395.8,1126.6,1353,1427.2
2026-06-21 00:41:50.243,1398.2,1129,1352.2,1429.6
2026-06-21 00:41:50.244,1401.4,1127.4,1353,1427.2
2026-06-21 00:41:50.245,1397.4,1122.6,1353,1428
2026-06-21 00:41:50.246,1398.2,1126.6,1352.2,1427.2
2026-06-21 00:41:50.247,1400.6,1125,1350.6,1428
2026-06-21 00:41:50.248,1399,1126.6,1354.7,1428
2026-06-21 00:41:50.249,1399,1129,1353.8,1427.2
2026-06-21 00:41:50.250,1399,1127.4,1353,1427.2
2026-06-21 00:41:50.251,1399,1125,1349,1426.4
2026-06-21 00:41:50.252,1399,1125,1353,1427.2
2026-06-21 00:41:50.253,1399.8,1125,1353,1428
2026-06-21 00:41:50.254,1399,1129,1354.7,1427.2
2026-06-21 00:41:50.255,1400.6,1128.2,1353.8,1428
2026-06-21 00:41:50.256,1399,1128.2,1355.5,1427.2
2026-06-21 00:41:50.257,1399,1127.4,1355.5,1428
2026-06-21 00:41:50.258,1399,1125,1354.7,1428
2026-06-21 00:41:50.259,1399,1126.6,1353,1421.5
2026-06-21 00:41:50.260,1399.8,1128.2,1352.2,1425.6
2026-06-21 00:41:50.261,1399,1125.8,1353,1423.2
2026-06-21 00:41:50.262,1399.8,1129.8,1352.2,1425.6
2026-06-21 00:41:50.263,1398.2,1127.4,1353.8,1426.4
2026-06-21 00:41:50.264,1402.2,1125,1353,1424.8
2026-06-21 00:41:50.265,1399,1125,1354.7,1427.2
2026-06-21 00:41:50.266,1399,1126.6,1355.5,1425.6
2026-06-21 00:41:50.267,1399,1129,1355.5,1425.6
2026-06-21 00:41:50.268,1399.8,1129,1353.8,1426.4
2026-06-21 00:41:50.269,1399.8,1129,1354.7,1427.2
2026-06-21 00:41:50.270,1399,1129,1354.7,1426.4
2026-06-21 00:41:50.271,1399,1129,1355.5,1423.2
2026-06-21 00:41:50.272,1399.8,1129,1355.5,1421.5
2026-06-21 00:41:50.273,1401.4,1128.2,1353,1426.4
2026-06-21 00:41:50.274,1404.6,1129,1354.7,1427.2
2026-06-21 00:41:50.275,1397.4,1126.6,1353.8,1427.2
2026-06-21 00:41:50.276,1399.8,1126.6,1353.8,1427.2
2026-06-21 00:41:50.277,1401.4,1128.2,1353.8,1426.4
2026-06-21 00:41:50.278,1399.8,1131.4,1355.5,1427.2
2026-06-21 00:41:50.279,1397.4,1129,1354.7,1427.2
2026-06-21 00:41:50.280,1399,1130.6,1353,1427.2
2026-06-21 00:41:50.281,1397.4,1129.8,1353,1426.4
2026-06-21 00:41:50.282,1403,1125.8,1354.7,1426.4
2026-06-21 00:41:50.283,1399,1125.8,1355.5,1427.2
2026-06-21 00:41:50.296,1399.8,1125.8,1352.2,1426.4
2026-06-21 00:41:50.297,1394.9,1125,1355.5,1427.2
2026-06-21 00:41:50.298,1395.8,1128.2,1353,1426.4
2026-06-21 00:41:50.299,1395.8,1129,1354.7,1426.4
2026-06-21 00:41:50.300,1397.4,1129.8,1350.6,1427.2
2026-06-21 00:41:50.301,1399,1130.6,1350.6,1427.2
2026-06-21 00:41:50.302,1398.2,1130.6,1350.6,1426.4
2026-06-21 00:41:50.303,1396.6,1128.2,1349,1426.4
2026-06-21 00:41:50.304,1395.8,1129,1353,1427.2
2026-06-21 00:41:50.305,1399,1129,1349,1426.4
2026-06-21 00:41:50.306,1398.2,1129,1353,1427.2
2026-06-21 00:41:50.307,1398.2,1125,1352.2,1427.2
2026-06-21 00:41:50.308,1399,1124.2,1352.2,1427.2
2026-06-21 00:41:50.309,1399,1125,1352.2,1428
2026-06-21 00:41:50.310,1399,1129,1355.5,1428.8
2026-06-21 00:41:50.311,1399,1129,1353.8,1427.2
2026-06-21 00:41:50.312,1397.4,1126.6,1353.8,1427.2
2026-06-21 00:41:50.313,1399.8,1129,1353,1426.4
2026-06-21 00:41:50.314,1398.2,1125.8,1355.5,1426.4
2026-06-21 00:41:50.315,1400.6,1126.6,1353,1427.2
2026-06-21 00:41:50.316,1399,1125.8,1355.5,1427.2
2026-06-21 00:41:50.317,1399,1129,1353,1427.2
2026-06-21 00:41:50.318,1399,1123.4,1353,1426.4
2026-06-21 00:41:50.319,1402.2,1125,1351.4,1427.2
2026-06-21 00:41:50.320,1399.8,1126.6,1353.8,1427.2
2026-06-21 00:41:50.321,1399,1131.4,1353,1423.2
2026-06-21 00:41:50.322,1399.8,1129,1354.7,1426.4
2026-06-21 00:41:50.323,1399,1129.8,1355.5,1427.2
2026-06-21 00:41:50.324,1399.8,1125,1353.8,1424
2026-06-21 00:41:50.325,1401.4,1128.2,1354.7,1424
2026-06-21 00:41:50.326,1399.8,1131.4,1355.5,1426.4
2026-06-21 00:41:50.327,1399.8,1129,1354.7,1427.2
2026-06-21 00:41:50.328,1399.8,1129,1353,1426.4
2026-06-21 00:41:50.329,1400.6,1131.4,1354.7,1427.2
2026-06-21 00:41:50.330,1403,1129,1355.5,1429.6
2026-06-21 00:41:50.331,1399,1129,1354.7,1428.8
2026-06-21 00:41:50.332,1401.4,1129,1354.7,1427.2
2026-06-21 00:41:50.333,1399,1129,1354.7,1428
2026-06-21 00:41:50.334,1397.4,1130.6,1353,1426.4
2026-06-21 00:41:50.335,1401.4,1129,1352.2,1427.2
2026-06-21 00:41:50.336,1399,1126.6,1355.5,1427.2
2026-06-21 00:41:50.337,1399.8,1130.6,1353.8,1425.6
2026-06-21 00:41:50.338,1403.8,1129,1353,1422.3
2026-06-21 00:41:50.339,1399.8,1128.2,1355.5,1425.6
2026-06-21 00:41:50.340,1399.8,1129.8,1355.5,1428.8
2026-06-21 00:41:50.341,1399,1129,1354.7,1427.2
2026-06-21 00:41:50.342,1399.8,1129,1353.8,1427.2
2026-06-21 00:41:50.343,1399.8,1128.2,1354.7,1427.2
2026-06-21 00:41:50.344,1399,1129,1354.7,1427.2
2026-06-21 00:41:50.345,1400.6,1129,1353,1427.2
2026-06-21 00:41:50.332,1399.8,1130.6,1355.5,1426.4
2026-06-21 00:41:50.333,1399,1131.4,1353.8,1425.6
2026-06-21 00:41:50.334,1394.9,1132.2,1353,1427.2
2026-06-21 00:41:50.335,1394.9,1129,1353.8,1427.2
2026-06-21 00:41:50.336,1396.6,1130.6,1351.4,1427.2
2026-06-21 00:41:50.337,1396.6,1131.4,1352.2,1428
2026-06-21 00:41:50.338,1394.9,1129,1349.8,1427.2
2026-06-21 00:41:50.339,1395.8,1131.4,1348.2,1427.2
2026-06-21 00:41:50.340,1397.4,1131.4,1351.4,1427.2
2026-06-21 00:41:50.341,1396.6,1131.4,1349,1426.4
2026-06-21 00:41:50.342,1399.8,1130.6,1349,1427.2
2026-06-21 00:41:50.343,1397.4,1129,1354.7,1427.2
2026-06-21 00:41:50.344,1399,1127.4,1353,1427.2
2026-06-21 00:41:50.345,1399,1126.6,1353,1427.2
2026-06-21 00:41:50.346,1399,1125,1353.8,1427.2
2026-06-21 00:41:50.347,1397.4,1128.2,1353,1427.2
2026-06-21 00:41:50.348,1399,1126.6,1355.5,1427.2
2026-06-21 00:41:50.349,1399.8,1125,1355.5,1427.2
2026-06-21 00:41:50.350,1397.4,1129,1354.7,1427.2
2026-06-21 00:41:50.351,1399,1126.6,1353.8,1427.2
2026-06-21 00:41:50.352,1399,1129,1354.7,1427.2
2026-06-21 00:41:50.353,1399,1125,1353,1428.8
2026-06-21 00:41:50.354,1399.8,1125,1354.7,1428
2026-06-21 00:41:50.355,1399,1129,1353.8,1427.2
2026-06-21 00:41:50.356,1399,1125.8,1352.2,1427.2
2026-06-21 00:41:50.357,1403.8,1128.2,1353.8,1423.2
2026-06-21 00:41:50.358,1401.4,1129,1353.8,1426.4
2026-06-21 00:41:50.359,1399.8,1129,1355.5,1426.4
2026-06-21 00:41:50.360,1399,1129.8,1353,1426.4
2026-06-21 00:41:50.361,1399,1129,1355.5,1426.4
2026-06-21 00:41:50.362,1398.2,1131.4,1353.8,1427.2
2026-06-21 00:41:50.363,1403,1129,1353.8,1424.8
2026-06-21 00:41:50.364,1399,1125.8,1353,1423.2
2026-06-21 00:41:50.365,1399,1128.2,1354.7,1424.8
2026-06-21 00:41:50.366,1399.8,1128.2,1355.5,1426.4
2026-06-21 00:41:50.367,1399.8,1126.6,1355.5,1424
2026-06-21 00:41:50.368,1399,1129,1354.7,1425.6
2026-06-21 00:41:50.369,1399,1129,1354.7,1426.4
2026-06-21 00:41:50.370,1399,1128.2,1353,1428
2026-06-21 00:41:50.371,1404.6,1131.4,1353,1427.2
2026-06-21 00:41:50.372,1399.8,1129,1349,1426.4
2026-06-21 00:41:50.373,1403,1132.2,1353,1426.4
2026-06-21 00:41:50.374,1400.6,1133,1353.8,1427.2
2026-06-21 00:41:50.375,1399,1125.8,1353.8,1427.2
2026-06-21 00:41:50.376,1402.2,1132.2,1354.7,1426.4
2026-06-21 00:41:50.377,1401.4,1130.6,1354.7,1426.4
2026-06-21 00:41:50.378,1399,1131.4,1355.5,1427.2
2026-06-21 00:41:50.379,1399.8,1129,1353.8,1426.4
2026-06-21 00:41:50.380,1402.2,1132.2,1353,1426.4
2026-06-21 00:41:50.381,1399,1133,1354.7,1427.2
2026-06-21 00:41:50.398,1399,1129,1354.7,1427.2
2026-06-21 00:41:50.399,1397.4,1129,1355.5,1427.2
2026-06-21 00:41:50.400,1394.9,1129,1355.5,1427.2
2026-06-21 00:41:50.401,1394.9,1129.8,1355.5,1427.2
2026-06-21 00:41:50.402,1399,1129,1349,1427.2
2026-06-21 00:41:50.403,1399,1130.6,1348.2,1427.2
2026-06-21 00:41:50.404,1396.6,1129,1351.4,1426.4
2026-06-21 00:41:50.405,1396.6,1129,1349,1426.4
2026-06-21 00:41:50.406,1398.2,1132.2,1352.2,1428
2026-06-21 00:41:50.407,1399,1130.6,1351.4,1427.2
2026-06-21 00:41:50.408,1397.4,1129,1351.4,1426.4
2026-06-21 00:41:50.409,1397.4,1122.6,1352.2,1427.2
2026-06-21 00:41:50.410,1399.8,1128.2,1351.4,1428
2026-06-21 00:41:50.411,1399,1129,1354.7,1424
2026-06-21 00:41:50.412,1399,1129.8,1353,1427.2
2026-06-21 00:41:50.413,1401.4,1125,1353.8,1427.2
2026-06-21 00:41:50.414,1399,1131.4,1353,1427.2
2026-06-21 00:41:50.415,1399,1128.2,1352.2,1428
2026-06-21 00:41:50.416,1398.2,1125.8,1353,1427.2
2026-06-21 00:41:50.417,1399.8,1126.6,1353,1427.2
2026-06-21 00:41:50.418,1399.8,1129,1353,1427.2
2026-06-21 00:41:50.419,1399.8,1129,1353,1427.2
2026-06-21 00:41:50.420,1399,1128.2,1353,1426.4
2026-06-21 00:41:50.421,1399,1125,1352.2,1427.2
2026-06-21 00:41:50.422,1399,1131.4,1353,1427.2
2026-06-21 00:41:50.423,1399,1129,1353.8,1422.3
2026-06-21 00:41:50.424,1399.8,1128.2,1353,1423.2
2026-06-21 00:41:50.425,1399.8,1128.2,1355.5,1423.2
2026-06-21 00:41:50.426,1399.8,1125,1353.8,1422.3
2026-06-21 00:41:50.427,1403,1125,1353.8,1425.6
2026-06-21 00:41:50.428,1399.8,1125.8,1352.2,1426.4
2026-06-21 00:41:50.429,1403,1125,1354.7,1427.2
2026-06-21 00:41:50.430,1402.2,1128.2,1353.8,1429.6
2026-06-21 00:41:50.431,1399,1129.8,1354.7,1427.2
2026-06-21 00:41:50.432,1399,1128.2,1355.5,1427.2
2026-06-21 00:41:50.433,1399.8,1129.8,1353.8,1428
2026-06-21 00:41:50.434,1399,1128.2,1352.2,1427.2
2026-06-21 00:41:50.435,1399,1129,1353,1427.2
2026-06-21 00:41:50.436,1399.8,1130.6,1352.2,1427.2
2026-06-21 00:41:50.437,1399,1130.6,1351.4,1426.4
2026-06-21 00:41:50.438,1399.8,1132.2,1355.5,1426.4
2026-06-21 00:41:50.439,1402.2,1126.6,1355.5,1427.2
2026-06-21 00:41:50.440,1402.2,1131.4,1353,1427.2
2026-06-21 00:41:50.441,1399.8,1129,1353,1426.4
2026-06-21 00:41:50.442,1398.2,1130.6,1353,1427.2
2026-06-21 00:41:50.443,1403,1130.6,1353.8,1428.8
2026-06-21 00:41:50.444,1399,1129,1353.8,1427.2
2026-06-21 00:41:50.445,1399.8,1129.8,1355.5,1427.2
2026-06-21 00:41:50.446,1397.4,1125.8,1352.2,1427.2
2026-06-21 00:41:50.447,1403,1129,1355.5,1428
2026-06-21 00:41:50.431,1402.2,1129,1353,1427.2
2026-06-21 00:41:50.432,1399,1129,1353.8,1426.4
2026-06-21 00:41:50.433,1394.9,1128.2,1353.8,1428
2026-06-21 00:41:50.434,1394.9,1131.4,1355.5,1427.2
2026-06-21 00:41:50.435,1394.9,1129.8,1352.2,1427.2
2026-06-21 00:41:50.436,1394.9,1131.4,1350.6,1427.2
2026-06-21 00:41:50.437,1397.4,1133,1350.6,1427.2
2026-06-21 00:41:50.438,1396.6,1132.2,1348.2,1429.6
2026-06-21 00:41:50.439,1399,1128.2,1350.6,1427.2
2026-06-21 00:41:50.440,1396.6,1129,1350.6,1427.2
2026-06-21 00:41:50.441,1399,1128.2,1351.4,1427.2
2026-06-21 00:41:50.442,1396.6,1133,1352.2,1428.8
2026-06-21 00:41:50.443,1397.4,1124.2,1352.2,1430.4
2026-06-21 00:41:50.444,1401.4,1125,1353,1430.4
2026-06-21 00:41:50.445,1399,1129.8,1355.5,1428
2026-06-21 00:41:50.446,1399,1125,1352.2,1426.4
2026-06-21 00:41:50.447,1401.4,1129,1352.2,1424.8
2026-06-21 00:41:50.448,1399.8,1128.2,1352.2,1419.9
2026-06-21 00:41:50.449,1399,1126.6,1354.7,1421.5
2026-06-21 00:41:50.450,1399,1125.8,1351.4,1419.1
2026-06-21 00:41:50.451,1399,1124.2,1353.8,1424.8
2026-06-21 00:41:50.452,1399,1125.8,1355.5,1427.2
2026-06-21 00:41:50.453,1399.8,1126.6,1353.8,1426.4
2026-06-21 00:41:50.454,1399,1128.2,1353.8,1426.4
2026-06-21 00:41:50.455,1399,1125.8,1352.2,1429.6
2026-06-21 00:41:50.456,1399,1126.6,1353,1426.4
2026-06-21 00:41:50.457,1399,1129,1353,1426.4
2026-06-21 00:41:50.458,1399,1128.2,1353,1425.6
2026-06-21 00:41:50.459,1399,1126.6,1355.5,1426.4
2026-06-21 00:41:50.460,1399,1132.2,1354.7,1427.2
2026-06-21 00:41:50.461,1401.4,1128.2,1353.8,1426.4
2026-06-21 00:41:50.462,1399.8,1129.8,1355.5,1426.4
2026-06-21 00:41:50.463,1399,1129,1353.8,1428
2026-06-21 00:41:50.464,1399,1129,1353.8,1426.4
2026-06-21 00:41:50.465,1401.4,1129,1353,1427.2
2026-06-21 00:41:50.466,1399.8,1129.8,1355.5,1426.4
2026-06-21 00:41:50.467,1399,1126.6,1353,1426.4
2026-06-21 00:41:50.468,1401.4,1125.8,1354.7,1426.4
2026-06-21 00:41:50.469,1399.8,1129.8,1354.7,1427.2
2026-06-21 00:41:50.470,1401.4,1125,1353,1426.4
2026-06-21 00:41:50.471,1402.2,1129,1354.7,1426.4
2026-06-21 00:41:50.472,1401.4,1130.6,1353.8,1426.4
2026-06-21 00:41:50.473,1399.8,1129,1352.2,1427.2
2026-06-21 00:41:50.474,1399.8,1129,1353,1426.4
2026-06-21 00:41:50.475,1401.4,1131.4,1355.5,1426.4
2026-06-21 00:41:50.476,1399.8,1129,1353.8,1428
2026-06-21 00:41:50.477,1399,1129,1354.7,1426.4
2026-06-21 00:41:50.478,1399,1128.2,1353,1426.4
2026-06-21 00:41:50.479,1399,1129,1354.7,1426.4
2026-06-21 00:41:50.480,1402.2,1129.8,1353.8,1426.4
2026-06-21 00:41:50.496,1399,1126.6,1352.2,1427.2
2026-06-21 00:41:50.497,1394.9,1131.4,1354.7,1427.2
2026-06-21 00:41:50.498,1394.9,1131.4,1355.5,1428
2026-06-21 00:41:50.499,1397.4,1133,1350.6,1427.2
2026-06-21 00:41:50.500,1397.4,1129.8,1348.2,1427.2
2026-06-21 00:41:50.501,1397.4,1130.6,1352.2,1427.2
2026-06-21 00:41:50.502,1395.8,1130.6,1349,1427.2
2026-06-21 00:41:50.503,1397.4,1129,1351.4,1428
2026-06-21 00:41:50.504,1399,1130.6,1354.7,1428
2026-06-21 00:41:50.505,1395.8,1129,1353,1430.4
2026-06-21 00:41:50.506,1397.4,1126.6,1352.2,1427.2
2026-06-21 00:41:50.507,1399,1126.6,1352.2,1427.2
2026-06-21 00:41:50.508,1399,1128.2,1355.5,1426.4
2026-06-21 00:41:50.509,1399,1125.8,1352.2,1426.4
2026-06-21 00:41:50.510,1399.8,1125.8,1352.2,1425.6
2026-06-21 00:41:50.511,1399,1124.2,1353,1427.2
2026-06-21 00:41:50.512,1403,1125.8,1352.2,1427.2
2026-06-21 00:41:50.513,1398.2,1129.8,1353,1427.2
2026-06-21 00:41:50.514,1401.4,1125,1354.7,1426.4
2026-06-21 00:41:50.515,1402.2,1129,1353,1427.2
2026-06-21 00:41:50.516,1403.8,1125,1354.7,1427.2
2026-06-21 00:41:50.517,1403,1126.6,1353,1427.2
2026-06-21 00:41:50.518,1399,1129,1353.8,1427.2
2026-06-21 00:41:50.519,1399,1129,1354.7,1427.2
2026-06-21 00:41:50.520,1399.8,1125.8,1353.8,1426.4
2026-06-21 00:41:50.521,1399,1130.6,1353.8,1423.2
2026-06-21 00:41:50.522,1399,1125,1355.5,1425.6
2026-06-21 00:41:50.523,1399,1129,1354.7,1425.6
2026-06-21 00:41:50.524,1399.8,1129.8,1355.5,1424
2026-06-21 00:41:50.525,1401.4,1129,1354.7,1425.6
2026-06-21 00:41:50.526,1399,1126.6,1353,1426.4
2026-06-21 00:41:50.527,1401.4,1129,1354.7,1424.8
2026-06-21 00:41:50.528,1403,1125.8,1354.7,1426.4
2026-06-21 00:41:50.529,1399.8,1128.2,1353,1426.4
2026-06-21 00:41:50.530,1402.2,1125,1353.8,1427.2
2026-06-21 00:41:50.531,1399,1129,1353.8,1427.2
2026-06-21 00:41:50.532,1399.8,1125,1353.8,1427.2
2026-06-21 00:41:50.533,1399,1126.6,1355.5,1427.2
2026-06-21 00:41:50.534,1403,1129,1353.8,1426.4
2026-06-21 00:41:50.535,1403.8,1128.2,1354.7,1427.2
2026-06-21 00:41:50.536,1399,1126.6,1354.7,1427.2
2026-06-21 00:41:50.537,1402.2,1129.8,1353,1426.4
2026-06-21 00:41:50.538,1403,1128.2,1354.7,1427.2
2026-06-21 00:41:50.539,1397.4,1130.6,1352.2,1426.4
2026-06-21 00:41:50.540,1403,1129,1355.5,1427.2
2026-06-21 00:41:50.541,1399,1126.6,1353,1427.2
2026-06-21 00:41:50.542,1399,1129,1354.7,1422.3
2026-06-21 00:41:50.543,1403,1130.6,1353,1425.6
2026-06-21 00:41:50.544,1403,1130.6,1355.5,1427.2
2026-06-21 00:41:50.545,1403,1126.6,1354.7,1427.2
2026-06-21 00:41:50.532,1403,1133,1354.7,1427.2
2026-06-21 00:41:50.533,1398.2,1130.6,1352.2,1427.2
2026-06-21 00:41:50.534,1394.9,1129,1353,1424
2026-06-21 00:41:50.535,1394.9,1126.6,1354.7,1425.6
2026-06-21 00:41:50.536,1399,1129,1353,1427.2
2026-06-21 00:41:50.537,1394.9,1129,1350.6,1427.2
2026-06-21 00:41:50.538,1402.2,1129,1349,1430.4
2026-06-21 00:41:50.539,1398.2,1133,1352.2,1427.2
2026-06-21 00:41:50.540,1397.4,1132.2,1350.6,1428
2026-06-21 00:41:50.541,1399,1129,1352.2,1427.2
2026-06-21 00:41:50.542,1397.4,1129,1352.2,1428
2026-06-21 00:41:50.543,1398.2,1125,1351.4,1427.2
2026-06-21 00:41:50.544,1399,1126.6,1354.7,1426.4
2026-06-21 00:41:50.545,1399,1126.6,1354.7,1423.2
2026-06-21 00:41:50.546,1397.4,1125.8,1353,1426.4
2026-06-21 00:41:50.547,1402.2,1129,1353.8,1425.6
2026-06-21 00:41:50.548,1396.6,1128.2,1353,1427.2
2026-06-21 00:41:50.549,1399.8,1125.8,1353,1427.2
2026-06-21 00:41:50.550,1396.6,1125,1353,1430.4
2026-06-21 00:41:50.551,1399,1128.2,1353.8,1428
2026-06-21 00:41:50.552,1402.2,1129,1354.7,1427.2
2026-06-21 00:41:50.553,1399.8,1129,1354.7,1427.2
2026-06-21 00:41:50.554,1397.4,1129,1353,1427.2
2026-06-21 00:41:50.555,1397.4,1131.4,1353,1426.4
2026-06-21 00:41:50.556,1401.4,1132.2,1352.2,1427.2
2026-06-21 00:41:50.557,1399,1129,1355.5,1426.4
2026-06-21 00:41:50.558,1399.8,1129,1354.7,1425.6
2026-06-21 00:41:50.559,1397.4,1129,1354.7,1425.6
2026-06-21 00:41:50.560,1399,1129,1353,1427.2
2026-06-21 00:41:50.561,1399.8,1125,1354.7,1426.4
2026-06-21 00:41:50.562,1401.4,1128.2,1353.8,1426.4
2026-06-21 00:41:50.563,1403,1129,1353.8,1424
2026-06-21 00:41:50.564,1399,1131.4,1354.7,1424
2026-06-21 00:41:50.565,1397.4,1128.2,1354.7,1424
2026-06-21 00:41:50.566,1399,1129,1353,1425.6
2026-06-21 00:41:50.567,1399,1129.8,1354.7,1425.6
2026-06-21 00:41:50.568,1399.8,1125.8,1355.5,1426.4
2026-06-21 00:41:50.569,1399,1129.8,1353.8,1427.2
2026-06-21 00:41:50.570,1399.8,1125,1354.7,1426.4
2026-06-21 00:41:50.571,1399.8,1129,1353.8,1424.8
2026-06-21 00:41:50.572,1399.8,1129,1354.7,1427.2
2026-06-21 00:41:50.573,1399.8,1130.6,1355.5,1425.6
2026-06-21 00:41:50.574,1403,1130.6,1353,1426.4
2026-06-21 00:41:50.575,1402.2,1132.2,1353.8,1427.2
2026-06-21 00:41:50.576,1399,1129.8,1354.7,1426.4
2026-06-21 00:41:50.577,1399,1128.2,1354.7,1426.4
2026-06-21 00:41:50.578,1401.4,1128.2,1353,1427.2
2026-06-21 00:41:50.579,1399,1128.2,1354.7,1426.4
2026-06-21 00:41:50.580,1398.2,1130.6,1349,1426.4
2026-06-21 00:41:50.581,1399,1126.6,1352.2,1426.4
2026-06-21 00:41:50.597,1401.4,1131.4,1354.7,1427.2
2026-06-21 00:41:50.598,1394.9,1131.4,1355.5,1424.8
2026-06-21 00:41:50.599,1394.9,1130.6,1355.5,1426.4
2026-06-21 00:41:50.600,1394.9,1129,1355.5,1426.4
2026-06-21 00:41:50.601,1399.8,1129,1353,1428
2026-06-21 00:41:50.602,1399.8,1129.8,1352.2,1427.2
2026-06-21 00:41:50.603,1395.8,1129,1351.4,1426.4
2026-06-21 00:41:50.604,1398.2,1129,1349.8,1427.2
2026-06-21 00:41:50.605,1402.2,1129,1351.4,1427.2
2026-06-21 00:41:50.606,1399,1129,1352.2,1427.2
2026-06-21 00:41:50.607,1397.4,1129,1353,1428
2026-06-21 00:41:50.608,1397.4,1125,1351.4,1427.2
2026-06-21 00:41:50.609,1399,1129,1353,1427.2
2026-06-21 00:41:50.610,1397.4,1125.8,1350.6,1426.4
2026-06-21 00:41:50.611,1397.4,1128.2,1353,1427.2
2026-06-21 00:41:50.612,1399,1129,1351.4,1427.2
2026-06-21 00:41:50.613,1399,1125,1349,1426.4
2026-06-21 00:41:50.614,1398.2,1127.4,1353,1426.4
2026-06-21 00:41:50.615,1399,1126.6,1353,1427.2
2026-06-21 00:41:50.616,1399,1129,1354.7,1426.4
2026-06-21 00:41:50.617,1399,1128.2,1353.8,1427.2
2026-06-21 00:41:50.618,1399.8,1129,1353,1426.4
2026-06-21 00:41:50.619,1399,1126.6,1353,1427.2
2026-06-21 00:41:50.620,1399,1128.2,1354.7,1427.2
2026-06-21 00:41:50.621,1399,1125.8,1353.8,1427.2
2026-06-21 00:41:50.622,1403,1129,1355.5,1423.2
2026-06-21 00:41:50.623,1399.8,1129,1354.7,1425.6
2026-06-21 00:41:50.624,1399,1125.8,1354.7,1426.4
2026-06-21 00:41:50.625,1398.2,1129.8,1354.7,1426.4
2026-06-21 00:41:50.626,1399,1125.8,1352.2,1425.6
2026-06-21 00:41:50.627,1399,1129,1353,1426.4
2026-06-21 00:41:50.628,1400.6,1129.8,1354.7,1426.4
2026-06-21 00:41:50.629,1399,1129.8,1353,1426.4
2026-06-21 00:41:50.630,1399,1126.6,1353,1426.4
2026-06-21 00:41:50.631,1399.8,1129,1355.5,1425.6
2026-06-21 00:41:50.632,1399,1128.2,1353,1426.4
2026-06-21 00:41:50.633,1399,1130.6,1353.8,1427.2
2026-06-21 00:41:50.634,1402.2,1129,1355.5,1427.2
2026-06-21 00:41:50.635,1399,1129,1352.2,1427.2
2026-06-21 00:41:50.636,1399,1125.8,1352.2,1427.2
2026-06-21 00:41:50.637,1399,1126.6,1355.5,1427.2
2026-06-21 00:41:50.638,1399,1129,1353,1427.2
2026-06-21 00:41:50.639,1397.4,1130.6,1353,1425.6
2026-06-21 00:41:50.640,1399.8,1129,1353.8,1427.2
2026-06-21 00:41:50.641,1398.2,1129,1354.7,1426.4
2026-06-21 00:41:50.642,1402.2,1129.8,1353,1426.4
2026-06-21 00:41:50.643,1399,1129.8,1354.7,1421.5
2026-06-21 00:41:50.644,1401.4,1129,1353,1426.4
2026-06-21 00:41:50.645,1399,1125.8,1353,1425.6
2026-06-21 00:41:50.646,1399.8,1131.4,1354.7,1426.4
2026-06-21 00:41:50.634,1399.8,1128.2,1352.2,1428.8
2026-06-21 00:41:50.635,1397.4,1130.6,1353.8,1427.2
2026-06-21 00:41:50.636,1395.8,1126.6,1353,1427.2
2026-06-21 00:41:50.637,1395.8,1129,1352.2,1427.2
2026-06-21 00:41:50.638,1394.9,1130.6,1348.2,1427.2
2026-06-21 00:41:50.639,1399,1125,1349,1428
2026-06-21 00:41:50.640,1394.9,1131.4,1352.2,1427.2
2026-06-21 00:41:50.641,1399,1131.4,1348.2,1427.2
2026-06-21 00:41:50.642,1397.4,1131.4,1351.4,1427.2
2026-06-21 00:41:50.643,1396.6,1129,1350.6,1427.2
2026-06-21 00:41:50.644,1398.2,1130.6,1350.6,1427.2
2026-06-21 00:41:50.645,1396.6,1129,1353.8,1426.4
2026-06-21 00:41:50.646,1396.6,1125,1353,1426.4
2026-06-21 00:41:50.647,1399,1126.6,1353,1427.2
2026-06-21 00:41:50.648,1397.4,1126.6,1354.7,1427.2
2026-06-21 00:41:50.649,1401.4,1125,1353.8,1426.4
2026-06-21 00:41:50.650,1397.4,1125,1354.7,1427.2
2026-06-21 00:41:50.651,1399,1127.4,1352.2,1428.8
2026-06-21 00:41:50.652,1399,1125,1353,1426.4
2026-06-21 00:41:50.653,1401.4,1129.8,1352.2,1427.2
2026-06-21 00:41:50.654,1399.8,1129,1353,1426.4
2026-06-21 00:41:50.655,1399.8,1129,1349,1427.2
2026-06-21 00:41:50.656,1399,1126.6,1353.8,1426.4
2026-06-21 00:41:50.657,1399.8,1129,1355.5,1426.4
2026-06-21 00:41:50.658,1398.2,1126.6,1354.7,1425.6
2026-06-21 00:41:50.659,1403,1125,1353.8,1426.4
2026-06-21 00:41:50.660,1399.8,1129,1353,1424
2026-06-21 00:41:50.661,1399,1128.2,1353.8,1424.8
2026-06-21 00:41:50.662,1399.8,1126.6,1349,1424
2026-06-21 00:41:50.663,1399,1128.2,1354.7,1426.4
2026-06-21 00:41:50.664,1399,1125,1353,1424
2026-06-21 00:41:50.665,1399,1129,1351.4,1424
2026-06-21 00:41:50.666,1401.4,1125.8,1354.7,1424
2026-06-21 00:41:50.667,1402.2,1129,1353,1424.8
2026-06-21 00:41:50.668,1399.8,1129,1354.7,1425.6
2026-06-21 00:41:50.669,1399,1129,1353,1424
2026-06-21 00:41:50.670,1399,1128.2,1354.7,1426.4
2026-06-21 00:41:50.671,1399,1129,1354.7,1426.4
2026-06-21 00:41:50.672,1399.8,1129,1353,1426.4
2026-06-21 00:41:50.673,1399.8,1129.8,1354.7,1427.2
2026-06-21 00:41:50.674,1399.8,1126.6,1354.7,1426.4
2026-06-21 00:41:50.675,1398.2,1127.4,1353,1425.6
2026-06-21 00:41:50.676,1403,1128.2,1353.8,1427.2
2026-06-21 00:41:50.677,1399,1128.2,1355.5,1427.2
2026-06-21 00:41:50.678,1399,1129,1353,1425.6
2026-06-21 00:41:50.679,1399,1129,1351.4,1427.2
2026-06-21 00:41:50.680,1402.2,1130.6,1353.8,1425.6
2026-06-21 00:41:50.681,1399.8,1128.2,1355.5,1426.4
2026-06-21 00:41:50.682,1403,1130.6,1353,1427.2
2026-06-21 00:41:50.683,1403,1129,1355.5,1426.4
2026-06-21 00:41:50.696,1399.8,1129,1353.8,1427.2
2026-06-21 00:41:50.697,1399,1126.6,1353.8,1426.4
2026-06-21 00:41:50.698,1394.9,1129,1354.7,1428
2026-06-21 00:41:50.699,1394.9,1126.6,1353,1427.2
2026-06-21 00:41:50.700,1394.9,1129,1349,1427.2
2026-06-21 00:41:50.701,1399.8,1129,1350.6,1427.2
2026-06-21 00:41:50.702,1395.8,1129.8,1350.6,1427.2
2026-06-21 00:41:50.703,1395.8,1130.6,1352.2,1427.2
2026-06-21 00:41:50.704,1399.8,1129,1353,1427.2
2026-06-21 00:41:50.705,1398.2,1132.2,1352.2,1427.2
2026-06-21 00:41:50.706,1399.8,1130.6,1355.5,1427.2
2026-06-21 00:41:50.707,1395.8,1125.8,1353.8,1427.2
2026-06-21 00:41:50.708,1399.8,1126.6,1353.8,1427.2
2026-06-21 00:41:50.709,1397.4,1125,1355.5,1427.2
2026-06-21 00:41:50.710,1398.2,1126.6,1353,1427.2
2026-06-21 00:41:50.711,1399,1129.8,1354.7,1427.2
2026-06-21 00:41:50.712,1399,1125,1353,1428
2026-06-21 00:41:50.713,1399,1129,1353.8,1426.4
2026-06-21 00:41:50.714,1397.4,1125.8,1353.8,1426.4
2026-06-21 00:41:50.715,1397.4,1130.6,1352.2,1426.4
2026-06-21 00:41:50.716,1399,1125,1352.2,1426.4
2026-06-21 00:41:50.717,1403,1126.6,1355.5,1427.2
2026-06-21 00:41:50.718,1399,1128.2,1354.7,1426.4
2026-06-21 00:41:50.719,1399,1128.2,1353.8,1427.2
2026-06-21 00:41:50.720,1399,1126.6,1353.8,1427.2
2026-06-21 00:41:50.721,1397.4,1129,1353.8,1422.3
2026-06-21 00:41:50.722,1400.6,1128.2,1355.5,1423.2
2026-06-21 00:41:50.723,1399,1129,1353,1426.4
2026-06-21 00:41:50.724,1402.2,1128.2,1352.2,1426.4
2026-06-21 00:41:50.725,1399,1129.8,1354.7,1425.6
2026-06-21 00:41:50.726,1399.8,1128.2,1354.7,1424
2026-06-21 00:41:50.727,1399.8,1130.6,1355.5,1426.4
2026-06-21 00:41:50.728,1397.4,1130.6,1355.5,1425.6
2026-06-21 00:41:50.729,1399.8,1132.2,1353.8,1424
2026-06-21 00:41:50.730,1397.4,1129,1354.7,1427.2
2026-06-21 00:41:50.731,1399.8,1126.6,1354.7,1427.2
2026-06-21 00:41:50.732,1403,1130.6,1353,1426.4
2026-06-21 00:41:50.733,1397.4,1129,1352.2,1427.2
2026-06-21 00:41:50.734,1399,1125.8,1355.5,1427.2
2026-06-21 00:41:50.735,1399,1129,1355.5,1426.4
2026-06-21 00:41:50.736,1399,1129,1355.5,1427.2
2026-06-21 00:41:50.737,1401.4,1126.6,1353.8,1426.4
2026-06-21 00:41:50.738,1399,1129,1350.6,1426.4
2026-06-21 00:41:50.739,1399,1131.4,1355.5,1426.4
2026-06-21 00:41:50.740,1399,1129,1355.5,1427.2
2026-06-21 00:41:50.741,1399,1133,1354.7,1426.4
2026-06-21 00:41:50.742,1399,1129,1353.8,1426.4
2026-06-21 00:41:50.743,1400.6,1131.4,1355.5,1425.6
2026-06-21 00:41:50.744,1399.8,1128.2,1353.8,1426.4
2026-06-21 00:41:50.745,1398.2,1131.4,1353,1425.6
2026-06-21 00:41:50.732,1400.6,1130.6,1352.2,1426.4
2026-06-21 00:41:50.733,1399,1130.6,1354.7,1427.2
2026-06-21 00:41:50.734,1395.8,1130.6,1355.5,1427.2
2026-06-21 00:41:50.735,1394.9,1129,1355.5,1428
2026-06-21 00:41:50.736,1399,1132.2,1351.4,1427.2
2026-06-21 00:41:50.737,1395.8,1128.2,1349,1427.2
2026-06-21 00:41:50.738,1397.4,1130.6,1350.6,1427.2
2026-06-21 00:41:50.739,1399,1129,1348.2,1427.2
2026-06-21 00:41:50.740,1395.8,1132.2,1349,1427.2
2026-06-21 00:41:50.741,1395.8,1126.6,1353,1426.4
2026-06-21 00:41:50.742,1396.6,1130.6,1351.4,1426.4
2026-06-21 00:41:50.743,1399,1125.8,1349,1427.2
2026-06-21 00:41:50.744,1402.2,1126.6,1351.4,1427.2
2026-06-21 00:41:50.745,1403,1125,1352.2,1427.2
2026-06-21 00:41:50.746,1399,1124.2,1353,1428.8
2026-06-21 00:41:50.747,1399,1126.6,1353,1427.2
2026-06-21 00:41:50.748,1399,1126.6,1351.4,1427.2
2026-06-21 00:41:50.749,1399,1125.8,1354.7,1427.2
2026-06-21 00:41:50.750,1399.8,1125,1355.5,1428
2026-06-21 00:41:50.751,1399.8,1125.8,1354.7,1428
2026-06-21 00:41:50.752,1399,1126.6,1354.7,1427.2
2026-06-21 00:41:50.753,1398.2,1125,1352.2,1427.2
2026-06-21 00:41:50.754,1399,1126.6,1354.7,1427.2
2026-06-21 00:41:50.755,1403.8,1129,1353,1427.2
2026-06-21 00:41:50.756,1399,1126.6,1354.7,1423.2
2026-06-21 00:41:50.757,1399.8,1126.6,1353,1421.5
2026-06-21 00:41:50.758,1400.6,1129,1355.5,1424
2026-06-21 00:41:50.759,1399,1125,1353.8,1426.4
2026-06-21 00:41:50.760,1399,1133,1355.5,1426.4
2026-06-21 00:41:50.761,1401.4,1130.6,1354.7,1427.2
2026-06-21 00:41:50.762,1399,1128.2,1353,1424
2026-06-21 00:41:50.763,1398.2,1129,1355.5,1425.6
2026-06-21 00:41:50.764,1399.8,1129,1353,1426.4
2026-06-21 00:41:50.765,1403,1129,1353.8,1426.4
2026-06-21 00:41:50.766,1399,1126.6,1355.5,1426.4
2026-06-21 00:41:50.767,1399,1126.6,1353,1426.4
2026-06-21 00:41:50.768,1401.4,1128.2,1353.8,1426.4
2026-06-21 00:41:50.769,1399.8,1129,1353.8,1427.2
2026-06-21 00:41:50.770,1399,1129,1355.5,1426.4
2026-06-21 00:41:50.771,1402.2,1129,1355.5,1427.2
2026-06-21 00:41:50.772,1402.2,1129,1354.7,1426.4
2026-06-21 00:41:50.773,1402.2,1129,1355.5,1427.2
2026-06-21 00:41:50.774,1402.2,1128.2,1354.7,1426.4
2026-06-21 00:41:50.775,1401.4,1126.6,1355.5,1426.4
2026-06-21 00:41:50.776,1398.2,1130.6,1353,1426.4
2026-06-21 00:41:50.777,1399,1125.8,1354.7,1427.2
2026-06-21 00:41:50.778,1399.8,1125,1355.5,1426.4
2026-06-21 00:41:50.779,1399,1130.6,1350.6,1427.2
2026-06-21 00:41:50.780,1401.4,1124.2,1353,1427.2
2026-06-21 00:41:50.781,1402.2,1128.2,1353.8,1427.2
2026-06-21 00:41:50.797,1399.8,1129,1354.7,1427.2
2026-06-21 00:41:50.798,1397.4,1125.8,1354.7,1426.4
2026-06-21 00:41:50.799,1394.9,1130.6,1353.8,1424
2026-06-21 00:41:50.800,1395.8,1129,1355.5,1427.2
2026-06-21 00:41:50.801,1395.8,1125.8,1352.2,1428
2026-06-21 00:41:50.802,1395.8,1133,1349,1427.2
2026-06-21 00:41:50.803,1397.4,1128.2,1349,1426.4
2026-06-21 00:41:50.804,1398.2,1129,1352.2,1427.2
2026-06-21 00:41:50.805,1399.8,1126.6,1353,1428
2026-06-21 00:41:50.806,1398.2,1128.2,1352.2,1427.2
2026-06-21 00:41:50.807,1399,1129,1352.2,1427.2
2026-06-21 00:41:50.808,1399,1125,1351.4,1427.2
2026-06-21 00:41:50.809,1399,1125,1353.8,1426.4
2026-06-21 00:41:50.810,1399.8,1123.4,1353,1426.4
2026-06-21 00:41:50.811,1402.2,1126.6,1353.8,1427.2
2026-06-21 00:41:50.812,1399,1125.8,1353,1427.2
2026-06-21 00:41:50.813,1400.6,1126.6,1354.7,1427.2
2026-06-21 00:41:50.814,1402.2,1126.6,1354.7,1426.4
2026-06-21 00:41:50.815,1399.8,1124.2,1355.5,1426.4
2026-06-21 00:41:50.816,1399.8,1125.8,1352.2,1428
2026-06-21 00:41:50.817,1398.2,1128.2,1355.5,1426.4
2026-06-21 00:41:50.818,1399,1125,1352.2,1427.2
2026-06-21 00:41:50.819,1399.8,1126.6,1353,1427.2
2026-06-21 00:41:50.820,1403,1126.6,1353,1427.2
2026-06-21 00:41:50.821,1402.2,1128.2,1353,1427.2
2026-06-21 00:41:50.822,1399,1125.8,1353,1424
2026-06-21 00:41:50.823,1399,1125,1354.7,1425.6
2026-06-21 00:41:50.824,1405.4,1129,1353.8,1424
2026-06-21 00:41:50.825,1401.4,1129,1353,1424
2026-06-21 00:41:50.826,1402.2,1129,1353,1426.4
2026-06-21 00:41:50.827,1399,1125.8,1355.5,1427.2
2026-06-21 00:41:50.828,1399,1128.2,1353,1425.6
2026-06-21 00:41:50.829,1399.8,1128.2,1353.8,1424
2026-06-21 00:41:50.830,1403,1131.4,1354.7,1424
2026-06-21 00:41:50.831,1403.8,1126.6,1353.8,1425.6
2026-06-21 00:41:50.832,1403.8,1131.4,1353.8,1426.4
2026-06-21 00:41:50.833,1402.2,1129.8,1354.7,1427.2
2026-06-21 00:41:50.834,1399,1130.6,1355.5,1427.2
2026-06-21 00:41:50.835,1399.8,1125.8,1352.2,1427.2
2026-06-21 00:41:50.836,1399,1130.6,1353,1427.2
2026-06-21 00:41:50.837,1402.2,1129,1353.8,1428
2026-06-21 00:41:50.838,1399,1130.6,1354.7,1427.2
2026-06-21 00:41:50.839,1399,1129.8,1355.5,1425.6
2026-06-21 00:41:50.840,1399,1129,1353,1426.4
2026-06-21 00:41:50.841,1399.8,1128.2,1355.5,1424.8
2026-06-21 00:41:50.842,1404.6,1129.8,1355.5,1427.2
2026-06-21 00:41:50.843,1401.4,1129,1353,1426.4
2026-06-21 00:41:50.844,1401.4,1131.4,1354.7,1426.4
2026-06-21 00:41:50.845,1403,1129,1351.4,1428
2026-06-21 00:41:50.846,1403,1129,1355.5,1427.2
2026-06-21 00:41:50.833,1399,1129.8,1355.5,1427.2
2026-06-21 00:41:50.834,1395.8,1128.2,1353,1425.6
2026-06-21 00:41:50.835,1397.4,1129,1353.8,1426.4
2026-06-21 00:41:50.836,1395.8,1129,1353.8,1427.2
2026-06-21 00:41:50.837,1395.8,1128.2,1348.2,1428
2026-06-21 00:41:50.838,1395.8,1131.4,1350.6,1428
2026-06-21 00:41:50.839,1395.8,1129,1352.2,1427.2
2026-06-21 00:41:50.840,1396.6,1129,1351.4,1428
2026-06-21 00:41:50.841,1396.6,1131.4,1351.4,1427.2
2026-06-21 00:41:50.842,1399,1130.6,1349,1427.2
2026-06-21 00:41:50.843,1398.2,1132.2,1349,1428
2026-06-21 00:41:50.844,1397.4,1126.6,1352.2,1427.2
2026-06-21 00:41:50.845,1397.4,1125,1355.5,1426.4
2026-06-21 00:41:50.846,1399.8,1121.8,1352.2,1427.2
2026-06-21 00:41:50.847,1399.8,1122.6,1354.7,1427.2
2026-06-21 00:41:50.848,1399.8,1123.4,1353,1427.2
2026-06-21 00:41:50.849,1403,1125.8,1353.8,1427.2
2026-06-21 00:41:50.850,1399,1125,1354.7,1427.2
2026-06-21 00:41:50.851,1399,1129,1353,1427.2
2026-06-21 00:41:50.852,1400.6,1129,1355.5,1427.2
2026-06-21 00:41:50.853,1401.4,1125,1353,1427.2
2026-06-21 00:41:50.854,1399,1124.2,1354.7,1428
2026-06-21 00:41:50.855,1402.2,1125,1353,1428.8
2026-06-21 00:41:50.856,1399.8,1125.8,1353.8,1427.2
2026-06-21 00:41:50.857,1399,1128.2,1353,1428.8
2026-06-21 00:41:50.858,1399,1126.6,1354.7,1427.2
2026-06-21 00:41:50.859,1399.8,1125.8,1352.2,1423.2
2026-06-21 00:41:50.860,1399.8,1129,1353.8,1422.3
2026-06-21 00:41:50.861,1399,1129,1352.2,1424
2026-06-21 00:41:50.862,1402.2,1129,1354.7,1425.6
2026-06-21 00:41:50.863,1399.8,1125,1354.7,1423.2
2026-06-21 00:41:50.864,1404.6,1129,1353.8,1425.6
2026-06-21 00:41:50.865,1399.8,1129,1353,1424.8
2026-06-21 00:41:50.866,1401.4,1128.2,1352.2,1426.4
2026-06-21 00:41:50.867,1402.2,1128.2,1353.8,1425.6
2026-06-21 00:41:50.868,1401.4,1127.4,1353,1427.2
2026-06-21 00:41:50.869,1399.8,1129.8,1354.7,1426.4
2026-06-21 00:41:50.870,1399,1124.2,1355.5,1426.4
2026-06-21 00:41:50.871,1399,1129,1355.5,1427.2
2026-06-21 00:41:50.872,1403.8,1125.8,1355.5,1426.4
2026-06-21 00:41:50.873,1403.8,1128.2,1355.5,1427.2
2026-06-21 00:41:50.874,1399,1128.2,1353.8,1426.4
2026-06-21 00:41:50.875,1399,1128.2,1351.4,1427.2
2026-06-21 00:41:50.876,1401.4,1131.4,1353,1426.4
2026-06-21 00:41:50.877,1399.8,1130.6,1353,1426.4
2026-06-21 00:41:50.878,1401.4,1129,1353,1427.2
2026-06-21 00:41:50.879,1402.2,1126.6,1354.7,1427.2
2026-06-21 00:41:50.880,1403,1131.4,1355.5,1427.2
2026-06-21 00:41:50.881,1399,1129,1353.8,1426.4
2026-06-21 00:41:50.882,1399.8,1127.4,1353.8,1425.6
2026-06-21 00:41:50.903,,1126.6,1353.8,1427.2
2026-06-21 00:41:50.897,1399,1129,1353.8,1425.6
2026-06-21 00:41:50.898,1395.8,1129,1355.5,1427.2
2026-06-21 00:41:50.899,1395.8,1128.2,,1427.2
2026-06-21 00:41:50.900,1394.9,1132.2,1354.7,1426.4
2026-06-21 00:41:50.901,1397.4,1129,1349,1427.2
2026-06-21 00:41:50.902,1395.8,1128.2,1349,1427.2
2026-06-21 00:41:50.903,1401.4,1128.2,1352.2,1425.6
2026-06-21 00:41:50.904,1399,1130.6,1349,1427.2
2026-06-21 00:41:50.905,1394.9,1131.4,1351.4,1428.8
2026-06-21 00:41:50.906,1395.8,1125.8,1349,1426.4
2026-06-21 00:41:50.907,1399,,1351.4,1427.2
2026-06-21 00:41:50.908,1399,1132.2,1352.2,1427.2
2026-06-21 00:41:50.909,1399,1125.8,1352.2,1428
2026-06-21 00:41:50.910,1399,1126.6,1353.8,1427.2
2026-06-21 00:41:50.911,1399.8,1125,1353,1427.2
2026-06-21 00:41:50.912,1402.2,1128.2,1353,1428
2026-06-21 00:41:50.913,1399,1128.2,1353,1427.2
2026-06-21 00:41:50.914,1399,1129,1353,1427.2
2026-06-21 00:41:50.915,1399,1125.8,1351.4,1427.2
2026-06-21 00:41:50.916,1399,1129,1353,1427.2
2026-06-21 00:41:50.917,1397.4,1125.8,1355.5,1427.2
2026-06-21 00:41:50.918,1399,1127.4,1353,1426.4
2026-06-21 00:41:50.919,1402.2,1130.6,1351.4,1427.2
2026-06-21 00:41:50.920,1399.8,1129,1353,1426.4
2026-06-21 00:41:50.921,1398.2,1129,1354.7,1424.8
2026-06-21 00:41:50.922,1401.4,1129,1355.5,1425.6
2026-06-21 00:41:50.923,1399.8,1129.8,1354.7,1425.6
2026-06-21 00:41:50.924,1402.2,1125,1353.8,1424
2026-06-21 00:41:50.925,1399.8,1129,1352.2,1426.4
2026-06-21 00:41:50.926,1397.4,1129,1353,1426.4
2026-06-21 00:41:50.927,1402.2,1129,1353.8,1426.4
2026-06-21 00:41:50.928,1400.6,1129,1352.2,1426.4
2026-06-21 00:41:50.929,1399,1126.6,1354.7,1426.4
2026-06-21 00:41:50.930,1399,1125,1353,1426.4
2026-06-21 00:41:50.931,1399,1129,1353,1426.4
2026-06-21 00:41:50.932,1399.8,1128.2,1355.5,1426.4
2026-06-21 00:41:50.933,1402.2,1125.8,1353.8,1427.2
2026-06-21 00:41:50.934,1399,1128.2,1355.5,1427.2
2026-06-21 00:41:50.935,1400.6,1129,1354.7,1426.4
2026-06-21 00:41:50.936,1399,1129,1355.5,1426.4
2026-06-21 00:41:50.937,1399.8,1126.6,1353.8,1426.4
2026-06-21 00:41:50.938,1399.8,1129,1354.7,1426.4
2026-06-21 00:41:50.939,1399.8,1129,1355.5,1427.2
2026-06-21 00:41:50.940,1399,1126.6,1354.7,1426.4
2026-06-21 00:41:50.941,1397.4,1129,1355.5,1427.2
2026-06-21 00:41:50.942,1401.4,1128.2,1355.5,1425.6
2026-06-21 00:41:50.943,1401.4,1128.2,1353,1427.2
2026-06-21 00:41:50.944,1399,1130.6,1353,1427.2
2026-06-21 00:41:50.945,1402.2,1130.6,1353.8,1426.4
2026-06-21 00:41:50.946,1402.2,1125.8,1353,1426.4
2026-06-21 00:41:50.933,1394.1,1129.8,1352.2,1427.2
2026-06-21 00:41:50.934,1395.8,1127.4,1354.7,1427.2
2026-06-21 00:41:50.935,1394.9,1129.8,1354.7,1427.2
2026-06-21 00:41:50.936,1395.8,1127.4,1353.8,1427.2
2026-06-21 00:41:50.937,1396.6,1129,1351.4,1427.2
2026-06-21 00:41:50.938,1399,1130.6,1349,1427.2
2026-06-21 00:41:50.939,1398.2,1130.6,1352.2,1427.2
2026-06-21 00:41:50.940,1397.4,1127.4,1352.2,1428
2026-06-21 00:41:50.941,1399,1130.6,1351.4,1427.2
2026-06-21 00:41:50.942,1397.4,1133,1352.2,1427.2
2026-06-21 00:41:50.943,1398.2,1129,1351.4,1427.2
2026-06-21 00:41:50.944,1398.2,1125,1353,1427.2
2026-06-21 00:41:50.945,1399,1125.8,1353,1427.2
2026-06-21 00:41:50.946,1399.8,1125,1353,1427.2
2026-06-21 00:41:50.947,1399,1126.6,1353,1428
2026-06-21 00:41:50.948,1399,1125.8,1353,1428
2026-06-21 00:41:50.949,1399,1125,1353,1427.2
2026-06-21 00:41:50.950,1399.8,1124.2,1352.2,1427.2
2026-06-21 00:41:50.951,1399,1126.6,1353.8,1426.4
2026-06-21 00:41:50.952,1399.8,1124.2,1353,1427.2
2026-06-21 00:41:50.953,1399.8,1126.6,1355.5,1427.2
2026-06-21 00:41:50.954,1399.8,1127.4,1352.2,1427.2
2026-06-21 00:41:50.955,1399.8,1129,1353,1426.4
2026-06-21 00:41:50.956,1399.8,1128.2,1353,1425.6
2026-06-21 00:41:50.957,1403,1129,1353.8,1424
2026-06-21 00:41:50.958,1403,1133,1353.8,1424.8
2026-06-21 00:41:50.959,1399.8,1128.2,1353,1424
2026-06-21 00:41:50.960,1402.2,1133,1354.7,1425.6
2026-06-21 00:41:50.961,1400.6,1132.2,1353,1425.6
2026-06-21 00:41:50.962,1402.2,1130.6,1355.5,1425.6
2026-06-21 00:41:50.963,1400.6,1129,1352.2,1426.4
2026-06-21 00:41:50.964,1398.2,1125.8,1353,1422.3
2026-06-21 00:41:50.965,1401.4,1128.2,1353.8,1424
2026-06-21 00:41:50.966,1399,1129,1355.5,1426.4
2026-06-21 00:41:50.967,1399,1125.8,1353,1426.4
2026-06-21 00:41:50.968,1399.8,1130.6,1353.8,1426.4
2026-06-21 00:41:50.969,1402.2,1125.8,1355.5,1425.6
2026-06-21 00:41:50.970,1399,1131.4,1353,1425.6
2026-06-21 00:41:50.971,1399,1131.4,1354.7,1425.6
2026-06-21 00:41:50.972,1399,1129,1354.7,1426.4
2026-06-21 00:41:50.973,1399.8,1128.2,1353.8,1427.2
2026-06-21 00:41:50.974,1398.2,1125.8,1355.5,1426.4
2026-06-21 00:41:50.975,1399,1131.4,1353.8,1428
2026-06-21 00:41:50.976,1404.6,1126.6,1355.5,1427.2
2026-06-21 00:41:50.977,1399,1128.2,1353.8,1427.2
2026-06-21 00:41:50.978,1399.8,1126.6,1351.4,1427.2
2026-06-21 00:41:50.979,1402.2,1132.2,1353,1427.2
2026-06-21 00:41:50.980,1399,1126.6,1352.2,1425.6
2026-06-21 00:41:50.981,1399,1129.8,1351.4,1425.6
2026-06-21 00:41:50.982,1403,1130.6,1352.2,1427.2
2026-06-21 00:41:50.996,1402.2,1129,1353,1426.4
2026-06-21 00:41:50.997,1395.8,1129,1353,1427.2
2026-06-21 00:41:50.998,1395.8,1132.2,1355.5,1427.2
2026-06-21 00:41:50.999,1394.9,1130.6,1353.8,1426.4
2026-06-21 00:41:51.000,1394.9,1126.6,1350.6,1427.2
2026-06-21 00:41:51.001,1397.4,1132.2,1349,1425.6
2026-06-21 00:41:51.002,1396.6,1129,1349.8,1426.4
2026-06-21 00:41:51.003,1395.8,1129,1350.6,1427.2
2026-06-21 00:41:51.004,1401.4,1130.6,1349.8,1426.4
2026-06-21 00:41:51.005,1397.4,1130.6,1353,1427.2
2026-06-21 00:41:51.006,1399.8,1131.4,1352.2,1426.4
2026-06-21 00:41:51.007,1399.8,1125,1353,1427.2
2026-06-21 00:41:51.008,1403,1129,1354.7,1427.2
2026-06-21 00:41:51.009,1403,1126.6,1353,1427.2
2026-06-21 00:41:51.010,1401.4,1128.2,1353,1427.2
2026-06-21 00:41:51.011,1399,1129,1355.5,1427.2
2026-06-21 00:41:51.012,1399,1125,1353,1430.4
2026-06-21 00:41:51.013,1402.2,1125,1351.4,1426.4
2026-06-21 00:41:51.014,1403,1129,1354.7,1427.2
2026-06-21 00:41:51.015,1399.8,1129,1351.4,1427.2
2026-06-21 00:41:51.016,1403,1128.2,1353.8,1427.2
2026-06-21 00:41:51.017,1402.2,1129,1352.2,1427.2
2026-06-21 00:41:51.018,1399,1128.2,1354.7,1427.2
2026-06-21 00:41:51.019,1399.8,1128.2,1353,1427.2
2026-06-21 00:41:51.020,1399.8,1129,1353.8,1426.4
2026-06-21 00:41:51.021,1399.8,1125.8,1353,1424
2026-06-21 00:41:51.022,1403,1129,1353.8,1424
2026-06-21 00:41:51.023,1403.8,1129,1353,1424
2026-06-21 00:41:51.024,1399,1129,1353,1425.6
2026-06-21 00:41:51.025,1399.8,1125.8,1353,1426.4
2026-06-21 00:41:51.026,1399.8,1130.6,1355.5,1427.2
2026-06-21 00:41:51.027,1400.6,1130.6,1353,1426.4
2026-06-21 00:41:51.028,1399.8,1129,1353.8,1425.6
2026-06-21 00:41:51.029,1396.6,1129,1353,1428
2026-06-21 00:41:51.030,1402.2,1129,1354.7,1425.6
2026-06-21 00:41:51.031,1399,1129.8,1353,1427.2
2026-06-21 00:41:51.032,1403,1129,1353,1427.2
2026-06-21 00:41:51.033,1402.2,1129,1354.7,1424
2026-06-21 00:41:51.034,1399,1129,1353.8,1426.4
2026-06-21 00:41:51.035,1403,1131.4,1353.8,1426.4
2026-06-21 00:41:51.036,1399.8,1126.6,1355.5,1428
2026-06-21 00:41:51.037,1399,1128.2,1355.5,1425.6
2026-06-21 00:41:51.038,1399.8,1126.6,1353.8,1426.4
2026-06-21 00:41:51.039,1402.2,1128.2,1354.7,1428
2026-06-21 00:41:51.040,1399,1129,1353.8,1426.4
2026-06-21 00:41:51.041,1403,1126.6,1353,1427.2
2026-06-21 00:41:51.042,1399.8,1129,1351.4,1425.6
2026-06-21 00:41:51.043,1403.8,1127.4,1355.5,1426.4
2026-06-21 00:41:51.044,1403,1128.2,1354.7,1426.4
2026-06-21 00:41:51.045,1401.4,1129,1353,1426.4
2026-06-21 00:41:51.033,1405.4,1126.6,1353.8,1426.4
2026-06-21 00:41:51.034,1403,1129.8,1354.7,1427.2
2026-06-21 00:41:51.035,1396.6,1125.8,1353.8,1426.4
2026-06-21 00:41:51.036,1398.2,1125,1353.8,1427.2
2026-06-21 00:41:51.037,1397.4,1130.6,1353,1427.2
2026-06-21 00:41:51.038,1398.2,1129,1353,1427.2
2026-06-21 00:41:51.039,1403,1129,1350.6,1426.4
2026-06-21 00:41:51.040,1399.8,1128.2,1352.2,1427.2
2026-06-21 00:41:51.041,1399,1125.8,1352.2,1427.2
2026-06-21 00:41:51.042,1399,1126.6,1353,1427.2
2026-06-21 00:41:51.043,1403,1129,1352.2,1427.2
2026-06-21 00:41:51.044,1401.4,1124.2,1353,1428
2026-06-21 00:41:51.045,1401.4,1125.8,1351.4,1427.2
2026-06-21 00:41:51.046,1402.2,1123.4,1353,1427.2
2026-06-21 00:41:51.047,1399,1126.6,1353,1428
2026-06-21 00:41:51.048,1399.8,1125,1353.8,1427.2
2026-06-21 00:41:51.049,1399,1125,1353,1428.8
2026-06-21 00:41:51.050,1401.4,1125,1354.7,1426.4
2026-06-21 00:41:51.051,1402.2,1128.2,1352.2,1427.2
2026-06-21 00:41:51.052,1403,1124.2,1353.8,1427.2
2026-06-21 00:41:51.053,1399.8,1126.6,1353,1427.2
2026-06-21 00:41:51.054,1400.6,1129,1351.4,1427.2
2026-06-21 00:41:51.055,1403.8,1126.6,1353,1427.2
2026-06-21 00:41:51.056,1399,1126.6,1353.8,1426.4
2026-06-21 00:41:51.057,1399,1126.6,1352.2,1425.6
2026-06-21 00:41:51.058,1405.4,1129.8,1353.8,1421.5
2026-06-21 00:41:51.059,1402.2,1126.6,1354.7,1426.4
2026-06-21 00:41:51.060,1399,1129,1353,1424
2026-06-21 00:41:51.061,1401.4,1127.4,1353.8,1424
2026-06-21 00:41:51.062,1403,1129,1355.5,1426.4
2026-06-21 00:41:51.063,1401.4,1128.2,1354.7,1427.2
2026-06-21 00:41:51.064,1403,1129,1353,1426.4
2026-06-21 00:41:51.065,1402.2,1131.4,1353,1427.2
2026-06-21 00:41:51.066,1402.2,1130.6,1355.5,1427.2
2026-06-21 00:41:51.067,1402.2,1128.2,1353,1426.4
2026-06-21 00:41:51.068,1401.4,1132.2,1353.8,1427.2
2026-06-21 00:41:51.069,1403,1129,1353.8,1427.2
2026-06-21 00:41:51.070,1399,1132.2,1353,1426.4
2026-06-21 00:41:51.071,1401.4,1129,1351.4,1426.4
2026-06-21 00:41:51.072,1402.2,1129,1352.2,1425.6
2026-06-21 00:41:51.073,1401.4,1129,1353.8,1425.6
2026-06-21 00:41:51.074,1402.2,1130.6,1353.8,1426.4
2026-06-21 00:41:51.075,1403.8,1129.8,1354.7,1427.2
2026-06-21 00:41:51.076,1401.4,1129,1352.2,1426.4
2026-06-21 00:41:51.077,1401.4,1129,1353.8,1426.4
2026-06-21 00:41:51.078,1403.8,1129,1351.4,1427.2
2026-06-21 00:41:51.079,1401.4,1129,1353.8,1426.4
2026-06-21 00:41:51.080,1403,1126.6,1353.8,1427.2
2026-06-21 00:41:51.081,1401.4,1129,1353.8,1426.4
2026-06-21 00:41:51.082,1403,1130.6,1353,1427.2
2026-06-21 00:41:51.096,1403,1129.8,1353.8,1427.2
2026-06-21 00:41:51.097,1396.6,1132.2,1354.7,1426.4
2026-06-21 00:41:51.098,1398.2,1125.8,1353.8,1427.2
2026-06-21 00:41:51.099,1399,1126.6,1354.7,1426.4
2026-06-21 00:41:51.100,1397.4,1129,1349,1427.2
2026-06-21 00:41:51.101,1399,1132.2,1353,1426.4
2026-06-21 00:41:51.102,1399,1129,1348.2,1428
2026-06-21 00:41:51.103,1401.4,1131.4,1349,1427.2
2026-06-21 00:41:51.104,1398.2,1132.2,1352.2,1427.2
2026-06-21 00:41:51.105,1398.2,1130.6,1351.4,1427.2
2026-06-21 00:41:51.106,1398.2,1130.6,1351.4,1427.2
2026-06-21 00:41:51.107,1399.8,1125.8,1352.2,1427.2
2026-06-21 00:41:51.108,1403,1125,1351.4,1427.2
2026-06-21 00:41:51.109,1404.6,1125.8,1353,1427.2
2026-06-21 00:41:51.110,1399,1128.2,1353,1427.2
2026-06-21 00:41:51.111,1401.4,1125.8,1353,1427.2
2026-06-21 00:41:51.112,1403,1129,1353,1427.2
2026-06-21 00:41:51.113,1399.8,1128.2,1351.4,1427.2
2026-06-21 00:41:51.114,1399.8,1125.8,1352.2,1426.4
2026-06-21 00:41:51.115,1402.2,1125,1353,1427.2
2026-06-21 00:41:51.116,1399,1125,1352.2,1427.2
2026-06-21 00:41:51.117,1402.2,1127.4,1353.8,1427.2
2026-06-21 00:41:51.118,1399,1125.8,1353,1427.2
2026-06-21 00:41:51.119,1404.6,1130.6,1352.2,1425.6
2026-06-21 00:41:51.120,1399.8,1129,1355.5,1425.6
2026-06-21 00:41:51.121,1399,1125.8,1355.5,1427.2
2026-06-21 00:41:51.122,1399,1128.2,1353.8,1425.6
2026-06-21 00:41:51.123,1402.2,1129,1354.7,1427.2
2026-06-21 00:41:51.124,1399.8,1128.2,1353,1425.6
2026-06-21 00:41:51.125,1402.2,1125.8,1351.4,1425.6
2026-06-21 00:41:51.126,1403,1125.8,1355.5,1426.4
2026-06-21 00:41:51.127,1399,1125.8,1354.7,1425.6
2026-06-21 00:41:51.128,1403,1129,1353.8,1424.8
2026-06-21 00:41:51.129,1403,1129,1354.7,1426.4
2026-06-21 00:41:51.130,1399.8,1130.6,1354.7,1426.4
2026-06-21 00:41:51.131,1400.6,1125,1353.8,1427.2
2026-06-21 00:41:51.132,1399,1129,1353.8,1426.4
2026-06-21 00:41:51.133,1403,1126.6,1353,1426.4
2026-06-21 00:41:51.134,1399.8,1129,1353,1426.4
2026-06-21 00:41:51.135,1403.8,1130.6,1353.8,1424
2026-06-21 00:41:51.136,1401.4,1130.6,1355.5,1427.2
2026-06-21 00:41:51.137,1401.4,1126.6,1355.5,1426.4
2026-06-21 00:41:51.138,1401.4,1126.6,1353,1426.4
2026-06-21 00:41:51.139,1399.8,1126.6,1351.4,1427.2
2026-06-21 00:41:51.140,1399.8,1125,1355.5,1426.4
2026-06-21 00:41:51.141,1399,1129,1353.8,1428
2026-06-21 00:41:51.142,1401.4,1125,1352.2,1425.6
2026-06-21 00:41:51.143,1399.8,1129,1355.5,1428
2026-06-21 00:41:51.144,1399,1129,1353.8,1428.8
2026-06-21 00:41:51.145,1399,1125.8,1355.5,1428.8
2026-06-21 00:41:51.134,1393.3,1128.2,1353.8,1428.8
2026-06-21 00:41:51.135,1395.8,1129,1353.8,1427.2
2026-06-21 00:41:51.136,1394.9,1128.2,1353.8,1429.6
2026-06-21 00:41:51.137,1396.6,1129,1353,1427.2
2026-06-21 00:41:51.138,1396.6,1129,1353.8,1426.4
2026-06-21 00:41:51.139,1396.6,1132.2,1351.4,1427.2
2026-06-21 00:41:51.140,1394.9,1128.2,1348.2,1426.4
2026-06-21 00:41:51.141,1399.8,1129,1352.2,1429.6
2026-06-21 00:41:51.142,1397.4,1128.2,1350.6,1428
2026-06-21 00:41:51.143,1398.2,1126.6,1353.8,1427.2
2026-06-21 00:41:51.144,1397.4,1130.6,1352.2,1428
2026-06-21 00:41:51.145,1399,1125,1352.2,1428
2026-06-21 00:41:51.146,1400.6,1126.6,1353.8,1428
2026-06-21 00:41:51.147,1403,1125.8,1353,1426.4
2026-06-21 00:41:51.148,1399,1127.4,1353,1427.2
2026-06-21 00:41:51.149,1398.2,1126.6,1351.4,1427.2
2026-06-21 00:41:51.150,1401.4,1125.8,1355.5,1425.6
2026-06-21 00:41:51.151,1399,1126.6,1354.7,1427.2
2026-06-21 00:41:51.152,1397.4,1129,1352.2,1427.2
2026-06-21 00:41:51.153,1398.2,1123.4,1355.5,1427.2
2026-06-21 00:41:51.154,1396.6,1125,1355.5,1427.2
2026-06-21 00:41:51.155,1399.8,1126.6,1353.8,1426.4
2026-06-21 00:41:51.156,1399,1125.8,1353,1427.2
2026-06-21 00:41:51.157,1400.6,1126.6,1353.8,1427.2
2026-06-21 00:41:51.158,1399,1128.2,1352.2,1425.6
2026-06-21 00:41:51.159,1399,1127.4,1353,1423.2
2026-06-21 00:41:51.160,1402.2,1130.6,1351.4,1426.4
2026-06-21 00:41:51.161,1402.2,1129,1353,1427.2
2026-06-21 00:41:51.162,1399,1130.6,1352.2,1427.2
2026-06-21 00:41:51.163,1395.8,1129,1352.2,1427.2
2026-06-21 00:41:51.164,1399,1125,1355.5,1425.6
2026-06-21 00:41:51.165,1401.4,1125.8,1353,1426.4
2026-06-21 00:41:51.166,1399,1129,1353,1426.4
2026-06-21 00:41:51.167,1399,1125.8,1353,1425.6
2026-06-21 00:41:51.168,1401.4,1129.8,1353.8,1427.2
2026-06-21 00:41:51.169,1399,1129,1352.2,1427.2
2026-06-21 00:41:51.170,1403,1130.6,1353.8,1427.2
2026-06-21 00:41:51.171,1399,1129,1354.7,1426.4
2026-06-21 00:41:51.172,1399,1125.8,1353.8,1427.2
2026-06-21 00:41:51.173,1400.6,1132.2,1353.8,1425.6
2026-06-21 00:41:51.174,1399,1127.4,1354.7,1426.4
2026-06-21 00:41:51.175,1399.8,1130.6,1353,1426.4
2026-06-21 00:41:51.176,1397.4,1129,1353,1427.2
2026-06-21 00:41:51.177,1403,1126.6,1354.7,1427.2
2026-06-21 00:41:51.178,1399.8,1129.8,1354.7,1426.4
2026-06-21 00:41:51.179,1395.8,1128.2,1353,1426.4
2026-06-21 00:41:51.180,1399,1126.6,1353.8,1426.4
2026-06-21 00:41:51.181,1399,1125,1353.8,1427.2
2026-06-21 00:41:51.182,1398.2,1124.2,1353.8,1427.2
2026-06-21 00:41:51.183,1399.8,1129,1353,1427.2
2026-06-21 00:41:51.196,1396.6,1129,1353,1428
2026-06-21 00:41:51.197,1394.9,1129,1352.2,1427.2
2026-06-21 00:41:51.198,1394.9,1128.2,1354.7,1427.2
2026-06-21 00:41:51.199,1396.6,1127.4,1350.6,1427.2
2026-06-21 00:41:51.200,1398.2,1132.2,1349,1427.2
2026-06-21 00:41:51.201,1397.4,1127.4,1349,1427.2
2026-06-21 00:41:51.202,1394.9,1128.2,1352.2,1426.4
2026-06-21 00:41:51.203,1397.4,1129,1351.4,1428.8
2026-06-21 00:41:51.204,1397.4,1130.6,1352.2,1430.4
2026-06-21 00:41:51.205,1396.6,1128.2,1353,1427.2
2026-06-21 00:41:51.206,1399,1128.2,1351.4,1426.4
2026-06-21 00:41:51.207,1396.6,1130.6,1353,1428.8
2026-06-21 00:41:51.208,1397.4,1125,1353.8,1427.2
2026-06-21 00:41:51.209,1401.4,1125.8,1352.2,1428.8
2026-06-21 00:41:51.210,1396.6,1125.8,1352.2,1427.2
2026-06-21 00:41:51.211,1399.8,1128.2,1354.7,1428
2026-06-21 00:41:51.212,1399.8,1125,1355.5,1428.8
2026-06-21 00:41:51.213,1399,1122.6,1355.5,1427.2
2026-06-21 00:41:51.214,1399,1126.6,1352.2,1428.8
2026-06-21 00:41:51.215,1402.2,1126.6,1354.7,1427.2
2026-06-21 00:41:51.216,1399,1128.2,1352.2,1427.2
2026-06-21 00:41:51.217,1399.8,1126.6,1353,1427.2
2026-06-21 00:41:51.218,1399.8,1124.2,1353,1427.2
2026-06-21 00:41:51.219,1397.4,1129,1353,1429.6
2026-06-21 00:41:51.220,1399.8,1128.2,1353,1425.6
2026-06-21 00:41:51.221,1401.4,1129,1354.7,1425.6
2026-06-21 00:41:51.222,1399,1128.2,1349,1425.6
2026-06-21 00:41:51.223,1399,1129,1352.2,1427.2
2026-06-21 00:41:51.224,1399,1125.8,1355.5,1427.2
2026-06-21 00:41:51.225,1403,1129,1352.2,1426.4
2026-06-21 00:41:51.226,1401.4,1128.2,1353,1424
2026-06-21 00:41:51.227,1399.8,1130.6,1354.7,1426.4
2026-06-21 00:41:51.228,1399.8,1129,1354.7,1427.2
2026-06-21 00:41:51.229,1399,1129,1353,1426.4
2026-06-21 00:41:51.230,1399.8,1130.6,1353,1426.4
2026-06-21 00:41:51.231,1399,1125.8,1355.5,1427.2
2026-06-21 00:41:51.232,1399.8,1130.6,1354.7,1424
2026-06-21 00:41:51.233,1399,1129,1352.2,1426.4
2026-06-21 00:41:51.234,1402.2,1130.6,1354.7,1427.2
2026-06-21 00:41:51.235,1399,1129,1353.8,1427.2
2026-06-21 00:41:51.236,1397.4,1126.6,1353,1426.4
2026-06-21 00:41:51.237,1399.8,1129.8,1353.8,1427.2
2026-06-21 00:41:51.238,1399,1126.6,1353.8,1427.2
2026-06-21 00:41:51.239,1399.8,1126.6,1352.2,1427.2
2026-06-21 00:41:51.240,1396.6,1129,1354.7,1428
2026-06-21 00:41:51.241,1399.8,1133,1351.4,1427.2
2026-06-21 00:41:51.242,1403,1126.6,1353.8,1427.2
2026-06-21 00:41:51.243,1399,1125.8,1354.7,1427.2
2026-06-21 00:41:51.244,1401.4,1129,1353,1427.2
2026-06-21 00:41:51.245,1402.2,1130.6,1353,1427.2
2026-06-21 00:41:51.233,1397.4,1129,1354.7,1426.4
2026-06-21 00:41:51.234,1394.9,1126.6,1353.8,1427.2
2026-06-21 00:41:51.235,1397.4,1127.4,1354.7,1427.2
2026-06-21 00:41:51.236,1394.9,1129,1351.4,1427.2
2026-06-21 00:41:51.237,1397.4,1128.2,1346.6,1427.2
2026-06-21 00:41:51.238,1396.6,1132.2,1351.4,1426.4
2026-06-21 00:41:51.239,1401.4,1130.6,1350.6,1428.8
2026-06-21 00:41:51.240,1395.8,1131.4,1350.6,1427.2
2026-06-21 00:41:51.241,1399,1129.8,1350.6,1426.4
2026-06-21 00:41:51.242,1399,1125.8,1353,1427.2
2026-06-21 00:41:51.243,1399,1128.2,1352.2,1427.2
2026-06-21 00:41:51.244,1399,1125,1351.4,1427.2
2026-06-21 00:41:51.245,1399,1126.6,1353,1430.4
2026-06-21 00:41:51.246,1399.8,1125.8,1355.5,1428.8
2026-06-21 00:41:51.247,1399.8,1129,1353.8,1428.8
2026-06-21 00:41:51.248,1399,1125,1353.8,1427.2
2026-06-21 00:41:51.249,1399,1125,1353,1428.8
2026-06-21 00:41:51.250,1399,1128.2,1351.4,1427.2
2026-06-21 00:41:51.251,1403,1129,1352.2,1427.2
2026-06-21 00:41:51.252,1403.8,1125.8,1353.8,1427.2
2026-06-21 00:41:51.253,1397.4,1128.2,1353.8,1427.2
2026-06-21 00:41:51.254,1398.2,1129,1353.8,1427.2
2026-06-21 00:41:51.255,1397.4,1129,1353,1426.4
2026-06-21 00:41:51.256,1403.8,1125.8,1353,1428
2026-06-21 00:41:51.257,1399,1129,1353,1423.2
2026-06-21 00:41:51.258,1399.8,1128.2,1354.7,1425.6
2026-06-21 00:41:51.259,1398.2,1125,1353,1426.4
2026-06-21 00:41:51.260,1401.4,1129,1349,1426.4
2026-06-21 00:41:51.261,1399,1129,1352.2,1426.4
2026-06-21 00:41:51.262,1399.8,1126.6,1352.2,1426.4
2026-06-21 00:41:51.263,1399,1128.2,1355.5,1425.6
2026-06-21 00:41:51.264,1397.4,1125.8,1353,1427.2
2026-06-21 00:41:51.265,1399,1129,1353.8,1426.4
2026-06-21 00:41:51.266,1399,1125.8,1353,1425.6
2026-06-21 00:41:51.267,1401.4,1127.4,1352.2,1426.4
2026-06-21 00:41:51.268,1399,1129,1354.7,1426.4
2026-06-21 00:41:51.269,1399,1129,1354.7,1426.4
2026-06-21 00:41:51.270,1399.8,1129,1355.5,1426.4
2026-06-21 00:41:51.271,1399.8,1128.2,1354.7,1427.2
2026-06-21 00:41:51.272,1403,1131.4,1355.5,1426.4
2026-06-21 00:41:51.273,1399,1128.2,1354.7,1425.6
2026-06-21 00:41:51.274,1399,1129.8,1353.8,1426.4
2026-06-21 00:41:51.275,1399,1129,1353,1425.6
2026-06-21 00:41:51.276,1402.2,1130.6,1350.6,1426.4
2026-06-21 00:41:51.277,1399.8,1129,1353,1425.6
2026-06-21 00:41:51.278,1399.8,1129,1353.8,1427.2
2026-06-21 00:41:51.279,1399,1126.6,1355.5,1425.6
2026-06-21 00:41:51.280,1401.4,1130.6,1353,1428
2026-06-21 00:41:51.281,1399,1128.2,1353,1427.2
2026-06-21 00:41:51.282,1401.4,1129,1354.7,1428
2026-06-21 00:41:51.296,1399,1126.6,1353.8,1427.2
2026-06-21 00:41:51.297,1396.6,1129.8,1352.2,1427.2
2026-06-21 00:41:51.298,1394.9,1130.6,1352.2,1428
2026-06-21 00:41:51.299,1395.8,1129,1351.4,1426.4
2026-06-21 00:41:51.300,1399.8,1129,1350.6,1427.2
2026-06-21 00:41:51.301,1395.8,1130.6,1350.6,1427.2
2026-06-21 00:41:51.302,1397.4,1127.4,1352.2,1427.2
2026-06-21 00:41:51.303,1395.8,1129,1348.2,1428
2026-06-21 00:41:51.304,1397.4,1131.4,1350.6,1427.2
2026-06-21 00:41:51.305,1397.4,1128.2,1353,1427.2
2026-06-21 00:41:51.306,1399,1131.4,1353,1427.2
2026-06-21 00:41:51.307,1399,1129,1352.2,1427.2
2026-06-21 00:41:51.308,1396.6,1128.2,1352.2,1427.2
2026-06-21 00:41:51.309,1401.4,1126.6,1349,1427.2
2026-06-21 00:41:51.310,1399,1128.2,1353,1427.2
2026-06-21 00:41:51.311,1399,1123.4,1353,1428.8
2026-06-21 00:41:51.312,1403,1125.8,1351.4,1428.8
2026-06-21 00:41:51.313,1398.2,1126.6,1353,1429.6
2026-06-21 00:41:51.314,1403.8,1129,1355.5,1428
2026-06-21 00:41:51.315,1399,1126.6,1353.8,1427.2
2026-06-21 00:41:51.316,1403,1125.8,1352.2,1427.2
2026-06-21 00:41:51.317,1399.8,1126.6,1355.5,1428
2026-06-21 00:41:51.318,1399.8,1125.8,1351.4,1426.4
2026-06-21 00:41:51.319,1399.8,1129.8,1355.5,1419.9
2026-06-21 00:41:51.320,1401.4,1125.8,1355.5,1426.4
2026-06-21 00:41:51.321,1402.2,1129,1352.2,1425.6
2026-06-21 00:41:51.322,1399.8,1130.6,1352.2,1424
2026-06-21 00:41:51.323,1403,1125.8,1352.2,1423.2
2026-06-21 00:41:51.324,1399,1129,1354.7,1426.4
2026-06-21 00:41:51.325,1399,1128.2,1353,1425.6
2026-06-21 00:41:51.326,1399,1127.4,1355.5,1427.2
2026-06-21 00:41:51.327,1399.8,1129,1354.7,1424
2026-06-21 00:41:51.328,1399.8,1129,1353,1426.4
2026-06-21 00:41:51.329,1401.4,1126.6,1352.2,1425.6
2026-06-21 00:41:51.330,1399,1129,1353,1426.4
2026-06-21 00:41:51.331,1399.8,1126.6,1353,1427.2
2026-06-21 00:41:51.332,1399,1130.6,1353.8,1425.6
2026-06-21 00:41:51.333,1399.8,1125,1352.2,1425.6
2026-06-21 00:41:51.334,1399,1128.2,1353,1426.4
2026-06-21 00:41:51.335,1399,1129,1353.8,1427.2
2026-06-21 00:41:51.336,1404.6,1129,1354.7,1427.2
2026-06-21 00:41:51.337,1399.8,1130.6,1354.7,1427.2
2026-06-21 00:41:51.338,1401.4,1124.2,1355.5,1426.4
2026-06-21 00:41:51.339,1403.8,1129,1353.8,1426.4
2026-06-21 00:41:51.340,1399.8,1130.6,1353,1428
2026-06-21 00:41:51.341,1399,1132.2,1355.5,1427.2
2026-06-21 00:41:51.342,1399,1131.4,1355.5,1427.2
2026-06-21 00:41:51.343,1401.4,1128.2,1352.2,1427.2
2026-06-21 00:41:51.344,1401.4,1128.2,1353,1427.2
2026-06-21 00:41:51.345,1399,1127.4,1355.5,1426.4
2026-06-21 00:41:51.333,1399.8,1130.6,1353.8,1427.2
2026-06-21 00:41:51.334,1397.4,1126.6,1355.5,1427.2
2026-06-21 00:41:51.335,1394.9,1129.8,1353,1427.2
2026-06-21 00:41:51.336,1399,1129,1353.8,1429.6
2026-06-21 00:41:51.337,1399,1129,1349,1427.2
2026-06-21 00:41:51.338,1397.4,1130.6,1351.4,1427.2
2026-06-21 00:41:51.339,1397.4,1129,1349,1427.2
2026-06-21 00:41:51.340,1395.8,1128.2,1352.2,1427.2
2026-06-21 00:41:51.341,1397.4,1129,1352.2,1427.2
2026-06-21 00:41:51.342,1398.2,1129.8,1349,1427.2
2026-06-21 00:41:51.343,1398.2,1129,1352.2,1427.2
2026-06-21 00:41:51.344,1397.4,1124.2,1353,1427.2
2026-06-21 00:41:51.345,1399.8,1126.6,1353,1427.2
2026-06-21 00:41:51.346,1401.4,1129,1352.2,1428.8
2026-06-21 00:41:51.347,1401.4,1129,1351.4,1428
2026-06-21 00:41:51.348,1401.4,1126.6,1352.2,1427.2
2026-06-21 00:41:51.349,1399,1128.2,1353,1428.8
2026-06-21 00:41:51.350,1399.8,1129,1353,1427.2
2026-06-21 00:41:51.351,1399.8,1125.8,1351.4,1428
2026-06-21 00:41:51.352,1399,1125.8,1353,1428.8
2026-06-21 00:41:51.353,1399,1129,1353,1427.2
2026-06-21 00:41:51.354,1399,1128.2,1353,1427.2
2026-06-21 00:41:51.355,1403,1128.2,1352.2,1428
2026-06-21 00:41:51.356,1401.4,1129,1351.4,1426.4
2026-06-21 00:41:51.357,1403.8,1124.2,1353.8,1425.6
2026-06-21 00:41:51.358,1399.8,1128.2,1355.5,1424.8
2026-06-21 00:41:51.359,1402.2,1129.8,1355.5,1426.4
2026-06-21 00:41:51.360,1401.4,1132.2,1354.7,1425.6
2026-06-21 00:41:51.361,1402.2,1130.6,1353.8,1424.8
2026-06-21 00:41:51.362,1399.8,1131.4,1353.8,1425.6
2026-06-21 00:41:51.363,1402.2,1125.8,1355.5,1424
2026-06-21 00:41:51.364,1399,1129.8,1352.2,1426.4
2026-06-21 00:41:51.365,1399,1126.6,1353,1426.4
2026-06-21 00:41:51.366,1403,1129,1353,1425.6
2026-06-21 00:41:51.367,1399,1129,1354.7,1427.2
2026-06-21 00:41:51.368,1399,1128.2,1354.7,1425.6
2026-06-21 00:41:51.369,1403,1129,1352.2,1426.4
2026-06-21 00:41:51.370,1403,1129.8,1355.5,1426.4
2026-06-21 00:41:51.371,1397.4,1130.6,1353,1426.4
2026-06-21 00:41:51.372,1403,1127.4,1352.2,1426.4
2026-06-21 00:41:51.373,1401.4,1128.2,1353,1426.4
2026-06-21 00:41:51.374,1403.8,1129,1353,1426.4
2026-06-21 00:41:51.375,1399,1130.6,1353,1427.2
2026-06-21 00:41:51.376,1402.2,1130.6,1353,1427.2
2026-06-21 00:41:51.377,1401.4,1127.4,1353,1428
2026-06-21 00:41:51.378,1399,1127.4,1353.8,1427.2
2026-06-21 00:41:51.379,1401.4,1129,1353,1426.4
2026-06-21 00:41:51.380,1399.8,1130.6,1355.5,1428
2026-06-21 00:41:51.381,1401.4,1129,1353.8,1425.6
2026-06-21 00:41:51.382,1399.8,1129.8,1355.5,1428.8
2026-06-21 00:41:51.397,1405.4,1126.6,1353,1426.4
2026-06-21 00:41:51.398,1399.8,1125.8,1353,1427.2
2026-06-21 00:41:51.399,1396.6,1126.6,1355.5,1427.2
2026-06-21 00:41:51.400,1394.9,1129,1354.7,1428.8
2026-06-21 00:41:51.401,1396.6,1128.2,1349,1427.2
2026-06-21 00:41:51.402,1396.6,1128.2,1349,1429.6
2026-06-21 00:41:51.403,1395.8,1130.6,1350.6,1427.2
2026-06-21 00:41:51.404,1399,1132.2,1351.4,1427.2
2026-06-21 00:41:51.405,1399.8,1130.6,1351.4,1427.2
2026-06-21 00:41:51.406,1399.8,1132.2,1350.6,1427.2
2026-06-21 00:41:51.407,1402.2,1133,1351.4,1425.6
2026-06-21 00:41:51.408,1399,1125,1353,1427.2
2026-06-21 00:41:51.409,1398.2,1125.8,1353,1427.2
2026-06-21 00:41:51.410,1399.8,1122.6,1351.4,1427.2
2026-06-21 00:41:51.411,1399.8,1128.2,1354.7,1428
2026-06-21 00:41:51.412,1399.8,1121,1354.7,1427.2
2026-06-21 00:41:51.413,1402.2,1125,1353,1427.2
2026-06-21 00:41:51.414,1399.8,1128.2,1355.5,1427.2
2026-06-21 00:41:51.415,1399,1128.2,1351.4,1427.2
2026-06-21 00:41:51.416,1402.2,1125.8,1353,1427.2
2026-06-21 00:41:51.417,1399.8,1126.6,1353,1425.6
2026-06-21 00:41:51.418,1399.8,1124.2,1353,1427.2
2026-06-21 00:41:51.419,1399,1128.2,1353.8,1426.4
2026-06-21 00:41:51.420,1402.2,1128.2,1353.8,1426.4
2026-06-21 00:41:51.421,1402.2,1126.6,1353.8,1425.6
2026-06-21 00:41:51.422,1399.8,1129.8,1353,1423.2
2026-06-21 00:41:51.423,1399.8,1125.8,1353.8,1424.8
2026-06-21 00:41:51.424,1399.8,1128.2,1353,1426.4
2026-06-21 00:41:51.425,1399,1129,1354.7,1426.4
2026-06-21 00:41:51.426,1399.8,1126.6,1352.2,1427.2
2026-06-21 00:41:51.427,1401.4,1125.8,1352.2,1427.2
2026-06-21 00:41:51.428,1399,1130.6,1353,1426.4
2026-06-21 00:41:51.429,1400.6,1129,1354.7,1427.2
2026-06-21 00:41:51.430,1399,1128.2,1353,1424
2026-06-21 00:41:51.431,1399,1133,1352.2,1424
2026-06-21 00:41:51.432,1402.2,1132.2,1355.5,1426.4
2026-06-21 00:41:51.433,1399.8,1129,1354.7,1426.4
2026-06-21 00:41:51.434,1403,1125,1354.7,1427.2
2026-06-21 00:41:51.435,1399,1129,1355.5,1427.2
2026-06-21 00:41:51.436,1402.2,1125.8,1354.7,1428
2026-06-21 00:41:51.437,1399.8,1129.8,1353.8,1426.4
2026-06-21 00:41:51.438,1399.8,1128.2,1355.5,1426.4
2026-06-21 00:41:51.439,1400.6,1129,1353.8,1427.2
2026-06-21 00:41:51.440,1401.4,1132.2,1353.8,1428
2026-06-21 00:41:51.441,1402.2,1129,1353.8,1427.2
2026-06-21 00:41:51.442,1403,1128.2,1352.2,1428
2026-06-21 00:41:51.443,1399.8,1129.8,1353,1427.2
2026-06-21 00:41:51.444,1399.8,1128.2,1352.2,1426.4
2026-06-21 00:41:51.445,1399,1130.6,1353,1427.2
2026-06-21 00:41:51.446,1399,1130.6,1353.8,1427.2
2026-06-21 00:41:51.433,1405.4,1130.6,1354.7,1427.2
2026-06-21 00:41:51.434,1395.8,1126.6,1353.8,1427.2
2026-06-21 00:41:51.435,1394.9,1129,1353,1428
2026-06-21 00:41:51.436,1395.8,1128.2,1352.2,1428
2026-06-21 00:41:51.437,1394.9,1129,1350.6,1429.6
2026-06-21 00:41:51.438,1395.8,1129,1348.2,1427.2
2026-06-21 00:41:51.439,1396.6,1126.6,1349,1428
2026-06-21 00:41:51.440,1399,1129,1348.2,1427.2
2026-06-21 00:41:51.441,1396.6,1125,1352.2,1426.4
2026-06-21 00:41:51.442,1396.6,1131.4,1352.2,1427.2
2026-06-21 00:41:51.443,1399,1129,1351.4,1427.2
2026-06-21 00:41:51.444,1399,1129,1353,1427.2
2026-06-21 00:41:51.445,1401.4,1126.6,1353,1428
2026-06-21 00:41:51.446,1399,1125.8,1351.4,1427.2
2026-06-21 00:41:51.447,1402.2,1125,1353,1427.2
2026-06-21 00:41:51.448,1396.6,1126.6,1353,1428
2026-06-21 00:41:51.449,1399.8,1126.6,1349,1428
2026-06-21 00:41:51.450,1399,1129,1353,1427.2
2026-06-21 00:41:51.451,1401.4,1127.4,1353.8,1427.2
2026-06-21 00:41:51.452,1399,1126.6,1353,1427.2
2026-06-21 00:41:51.453,1399,1125.8,1353,1427.2
2026-06-21 00:41:51.454,1397.4,1125,1353,1428
2026-06-21 00:41:51.455,1403.8,1129,1353,1427.2
2026-06-21 00:41:51.456,1399,1129,1353,1425.6
2026-06-21 00:41:51.457,1403,1125.8,1354.7,1423.2
2026-06-21 00:41:51.458,1400.6,1128.2,1353,1424.8
2026-06-21 00:41:51.459,1399.8,1130.6,1353,1424
2026-06-21 00:41:51.460,1399,1133,1352.2,1427.2
2026-06-21 00:41:51.461,1403,1129,1353.8,1424
2026-06-21 00:41:51.462,1399,1131.4,1353,1427.2
2026-06-21 00:41:51.463,1403,1129,1353.8,1427.2
2026-06-21 00:41:51.464,1398.2,1125.8,1354.7,1425.6
2026-06-21 00:41:51.465,1401.4,1124.2,1353.8,1426.4
2026-06-21 00:41:51.466,1401.4,1127.4,1351.4,1425.6
2026-06-21 00:41:51.467,1399,1129.8,1354.7,1426.4
2026-06-21 00:41:51.468,1403,1128.2,1353,1425.6
2026-06-21 00:41:51.469,1399,1132.2,1353,1428
2026-06-21 00:41:51.470,1399,1129,1354.7,1427.2
2026-06-21 00:41:51.471,1399.8,1129,1353,1427.2
2026-06-21 00:41:51.472,1403,1128.2,1353.8,1427.2
2026-06-21 00:41:51.473,1399,1129.8,1352.2,1427.2
2026-06-21 00:41:51.474,1399.8,1128.2,1354.7,1428.8
2026-06-21 00:41:51.475,1400.6,1130.6,1353.8,1427.2
2026-06-21 00:41:51.476,1395.8,1129,1353,1428
2026-06-21 00:41:51.477,1399.8,1128.2,1353,1427.2
2026-06-21 00:41:51.478,1401.4,1129,1353,1427.2
2026-06-21 00:41:51.479,1403,1129,1353,1427.2
2026-06-21 00:41:51.480,1399,1129,1353.8,1425.6
2026-06-21 00:41:51.481,1399.8,1125.8,1354.7,1427.2
2026-06-21 00:41:51.482,1401.4,1128.2,1353,1427.2
2026-06-21 00:41:51.496,1399.8,1128.2,1353,1427.2
2026-06-21 00:41:51.497,1398.2,1128.2,1353.8,1427.2
2026-06-21 00:41:51.498,1395.8,1126.6,1353,1427.2
2026-06-21 00:41:51.499,1394.9,1130.6,1354.7,1427.2
2026-06-21 00:41:51.500,1395.8,1129,1349,1427.2
2026-06-21 00:41:51.501,1397.4,1129,1350.6,1428
2026-06-21 00:41:51.502,1399.8,1125.8,1352.2,1427.2
2026-06-21 00:41:51.503,1396.6,1129.8,1349.8,1428.8
2026-06-21 00:41:51.504,1397.4,1126.6,1351.4,1427.2
2026-06-21 00:41:51.505,1399,1128.2,1353,1427.2
2026-06-21 00:41:51.506,1399,1129,1351.4,1427.2
2026-06-21 00:41:51.507,1399.8,1125.8,1352.2,1426.4
2026-06-21 00:41:51.508,1399,1125.8,1353,1427.2
2026-06-21 00:41:51.509,1402.2,1126.6,1352.2,1426.4
2026-06-21 00:41:51.510,1401.4,1125,1353.8,1427.2
2026-06-21 00:41:51.511,1399.8,1128.2,1352.2,1427.2
2026-06-21 00:41:51.512,1399.8,1126.6,1351.4,1426.4
2026-06-21 00:41:51.513,1399.8,1125.8,1355.5,1428
2026-06-21 00:41:51.514,1399,1126.6,1355.5,1427.2
2026-06-21 00:41:51.515,1399,1125.8,1353.8,1427.2
2026-06-21 00:41:51.516,1399.8,1129,1353.8,1426.4
2026-06-21 00:41:51.517,1403.8,1128.2,1355.5,1427.2
2026-06-21 00:41:51.518,1402.2,1125,1352.2,1427.2
2026-06-21 00:41:51.519,1403,1129,1353.8,1426.4
2026-06-21 00:41:51.520,1398.2,1129.8,1352.2,1425.6
2026-06-21 00:41:51.521,1399.8,1129,1353,1427.2
2026-06-21 00:41:51.522,1401.4,1129.8,1354.7,1426.4
2026-06-21 00:41:51.523,1401.4,1129.8,1354.7,1425.6
2026-06-21 00:41:51.524,1402.2,1129,1353,1427.2
2026-06-21 00:41:51.525,1399.8,1125,1352.2,1426.4
2026-06-21 00:41:51.526,1401.4,1126.6,1353,1424
2026-06-21 00:41:51.527,1399,1129,1353,1425.6
2026-06-21 00:41:51.528,1399,1129,1355.5,1426.4
2026-06-21 00:41:51.529,1402.2,1129,1353.8,1426.4
2026-06-21 00:41:51.530,1403.8,1129,1353,1425.6
2026-06-21 00:41:51.531,1399,1126.6,1353,1427.2
2026-06-21 00:41:51.532,1399.8,1125.8,1353,1426.4
2026-06-21 00:41:51.533,1399,1125,1353,1427.2
2026-06-21 00:41:51.534,1399,1129,1355.5,1427.2
2026-06-21 00:41:51.535,1400.6,1129,1353.8,1426.4
2026-06-21 00:41:51.536,1399.8,1128.2,1353,1426.4
2026-06-21 00:41:51.537,1399,1129,1353,1426.4
2026-06-21 00:41:51.538,1399,1129,1352.2,1427.2
2026-06-21 00:41:51.539,1403,1129,1354.7,1427.2
2026-06-21 00:41:51.540,1399,1130.6,1352.2,1426.4
2026-06-21 00:41:51.541,1399.8,1126.6,1353,1426.4
2026-06-21 00:41:51.542,1399.8,1129,1353,1426.4
2026-06-21 00:41:51.543,1399,1129.8,1353,1427.2
2026-06-21 00:41:51.544,1402.2,1126.6,1353.8,1427.2
2026-06-21 00:41:51.545,1402.2,1129,1353,1425.6
2026-06-21 00:41:51.535,1395.8,1130.6,1353,1427.2
2026-06-21 00:41:51.536,1394.9,1131.4,1355.5,1426.4
2026-06-21 00:41:51.537,1399,1128.2,1353.8,1427.2
2026-06-21 00:41:51.538,1397.4,1125.8,1354.7,1427.2
2026-06-21 00:41:51.539,1399,1129,1354.7,1427.2
2026-06-21 00:41:51.540,1399,1129,1349.8,1428
2026-06-21 00:41:51.541,1399,1132.2,1351.4,1427.2
2026-06-21 00:41:51.542,1398.2,1130.6,1352.2,1427.2
2026-06-21 00:41:51.543,1399,1130.6,1350.6,1427.2
2026-06-21 00:41:51.544,1401.4,1129,1351.4,1427.2
2026-06-21 00:41:51.545,1399.8,1130.6,1352.2,1427.2
2026-06-21 00:41:51.546,1397.4,1129,1352.2,1427.2
2026-06-21 00:41:51.547,1399,1125,1352.2,1427.2
2026-06-21 00:41:51.548,1399,1126.6,1351.4,1427.2
2026-06-21 00:41:51.549,1402.2,1130.6,1353.8,1427.2
2026-06-21 00:41:51.550,1403,1126.6,1352.2,1430.4
2026-06-21 00:41:51.551,1403,1125,1353,1427.2
2026-06-21 00:41:51.552,1399,1127.4,1352.2,1427.2
2026-06-21 00:41:51.553,1403,1129,1353,1428
2026-06-21 00:41:51.554,1399,1129,1351.4,1427.2
2026-06-21 00:41:51.555,1403,1128.2,1353,1427.2
2026-06-21 00:41:51.556,1399,1125.8,1352.2,1427.2
2026-06-21 00:41:51.557,1399,1129,1354.7,1426.4
2026-06-21 00:41:51.558,1399,1129,1354.7,1427.2
2026-06-21 00:41:51.559,1399,1128.2,1352.2,1425.6
2026-06-21 00:41:51.560,1399.8,1128.2,1353,1425.6
2026-06-21 00:41:51.561,1399,1127.4,1353,1427.2
2026-06-21 00:41:51.562,1398.2,1128.2,1353.8,1427.2
2026-06-21 00:41:51.563,1399,1129,1355.5,1425.6
2026-06-21 00:41:51.564,1399.8,1125.8,1353,1427.2
2026-06-21 00:41:51.565,1400.6,1127.4,1353.8,1426.4
2026-06-21 00:41:51.566,1403,1129,1354.7,1426.4
2026-06-21 00:41:51.567,1402.2,1132.2,1352.2,1427.2
2026-06-21 00:41:51.568,1402.2,1125.8,1353,1427.2
2026-06-21 00:41:51.569,1399,1126.6,1353.8,1426.4
2026-06-21 00:41:51.570,1401.4,1126.6,1353.8,1427.2
2026-06-21 00:41:51.571,1399,1132.2,1352.2,1426.4
2026-06-21 00:41:51.572,1401.4,1125,1353.8,1427.2
2026-06-21 00:41:51.573,1399.8,1126.6,1351.4,1427.2
2026-06-21 00:41:51.574,1399,1129,1353,1427.2
2026-06-21 00:41:51.575,1402.2,1126.6,1353.8,1426.4
2026-06-21 00:41:51.576,1399,1129,1352.2,1427.2
2026-06-21 00:41:51.577,1403,1129,1353.8,1426.4
2026-06-21 00:41:51.578,1401.4,1129,1353,1427.2
2026-06-21 00:41:51.579,1399,1130.6,1355.5,1427.2
2026-06-21 00:41:51.580,1402.2,1129,1353.8,1427.2
2026-06-21 00:41:51.581,1402.2,1129,1353.8,1427.2
2026-06-21 00:41:51.582,1399.8,1128.2,1352.2,1426.4
2026-06-21 00:41:51.583,1401.4,1126.6,1353,1427.2
2026-06-21 00:41:51.584,1399,1129,1355.5,1427.2
2026-06-21 00:41:51.596,1401.4,1133,1352.2,1427.2
2026-06-21 00:41:51.597,1398.2,1130.6,1353,1425.6
2026-06-21 00:41:51.598,1394.9,1129,1353,1426.4
2026-06-21 00:41:51.599,1397.4,1130.6,1355.5,1428
2026-06-21 00:41:51.600,1395.8,1126.6,1355.5,1428.8
2026-06-21 00:41:51.601,1394.9,1130.6,1349,1427.2
2026-06-21 00:41:51.602,1398.2,1129,1350.6,1426.4
2026-06-21 00:41:51.603,1397.4,1129.8,1349,1427.2
2026-06-21 00:41:51.604,1395.8,1130.6,1352.2,1427.2
2026-06-21 00:41:51.605,1397.4,1129,1351.4,1427.2
2026-06-21 00:41:51.606,1399,1129,1349.8,1427.2
2026-06-21 00:41:51.607,1398.2,1129,1352.2,1427.2
2026-06-21 00:41:51.608,1396.6,1129,1350.6,1428
2026-06-21 00:41:51.609,1399,1126.6,1351.4,1427.2
2026-06-21 00:41:51.610,1403,1126.6,1354.7,1426.4
2026-06-21 00:41:51.611,1399.8,1128.2,1353,1427.2
2026-06-21 00:41:51.612,1399.8,1124.2,1353,1427.2
2026-06-21 00:41:51.613,1397.4,1125.8,1352.2,1427.2
2026-06-21 00:41:51.614,1398.2,1128.2,1353,1428
2026-06-21 00:41:51.615,1398.2,1126.6,1353,1427.2
2026-06-21 00:41:51.616,1403,1125,1353,1427.2
2026-06-21 00:41:51.617,1399,1127.4,1353,1427.2
2026-06-21 00:41:51.618,1399.8,1126.6,1353,1427.2
2026-06-21 00:41:51.619,1401.4,1125,1353,1427.2
2026-06-21 00:41:51.620,1399,1128.2,1353,1424
2026-06-21 00:41:51.621,1399.8,1129,1354.7,1424
2026-06-21 00:41:51.622,1402.2,1128.2,1353.8,1424
2026-06-21 00:41:51.623,1403.8,1130.6,1352.2,1427.2
2026-06-21 00:41:51.624,1399.8,1129,1353.8,1426.4
2026-06-21 00:41:51.625,1399.8,1129,1353,1426.4
2026-06-21 00:41:51.626,1399.8,1133,1354.7,1427.2
2026-06-21 00:41:51.627,1399,1128.2,1353.8,1427.2
2026-06-21 00:41:51.628,1403,1125.8,1355.5,1427.2
2026-06-21 00:41:51.629,1399.8,1130.6,1353.8,1427.2
2026-06-21 00:41:51.630,1399.8,1132.2,1355.5,1427.2
2026-06-21 00:41:51.631,1399,1128.2,1355.5,1426.4
2026-06-21 00:41:51.632,1399.8,1130.6,1353,1426.4
2026-06-21 00:41:51.633,1399.8,1126.6,1353.8,1426.4
2026-06-21 00:41:51.634,1399,1130.6,1355.5,1426.4
2026-06-21 00:41:51.635,1403,1128.2,1355.5,1426.4
2026-06-21 00:41:51.636,1399,1129,1352.2,1427.2
2026-06-21 00:41:51.637,1399.8,1128.2,1353.8,1427.2
2026-06-21 00:41:51.638,1399.8,1130.6,1353.8,1426.4
2026-06-21 00:41:51.639,1399.8,1130.6,1355.5,1427.2
2026-06-21 00:41:51.640,1399,1131.4,1354.7,1427.2
2026-06-21 00:41:51.641,1399.8,1125.8,1353,1426.4
2026-06-21 00:41:51.642,1398.2,1126.6,1353.8,1427.2
2026-06-21 00:41:51.643,1402.2,1130.6,1355.5,1427.2
2026-06-21 00:41:51.644,1402.2,1129,1354.7,1427.2
2026-06-21 00:41:51.645,1402.2,1129,1352.2,1427.2
2026-06-21 00:41:51.663,1399,1129,1354.7,1427.2
2026-06-21 00:41:51.664,1399,1129,1353.8,1427.2
2026-06-21 00:41:51.665,1394.9,1129.8,1353.8,1427.2
2026-06-21 00:41:51.666,1396.6,1126.6,1350.6,1425.6
2026-06-21 00:41:51.667,1394.9,1129,1350.6,1427.2
2026-06-21 00:41:51.668,1396.6,1130.6,1350.6,1428
2026-06-21 00:41:51.669,1397.4,1125,1352.2,1427.2
2026-06-21 00:41:51.670,1399,1125.8,1352.2,1427.2
2026-06-21 00:41:51.671,1399,1129,1352.2,1427.2
2026-06-21 00:41:51.672,1397.4,1133,1352.2,1427.2
2026-06-21 00:41:51.673,1399,1128.2,1350.6,1427.2
2026-06-21 00:41:51.674,1399,1125,1353,1427.2
2026-06-21 00:41:51.675,1399,1126.6,1355.5,1427.2
2026-06-21 00:41:51.676,1402.2,1125,1354.7,1428.8
2026-06-21 00:41:51.677,1399,1124.2,1353,1427.2
2026-06-21 00:41:51.678,1399,1123.4,1353.8,1426.4
2026-06-21 00:41:51.679,1399.8,1128.2,1353,1426.4
2026-06-21 00:41:51.680,1399,1131.4,1353.8,1426.4
2026-06-21 00:41:51.681,1399,1125,1354.7,1426.4
2026-06-21 00:41:51.682,1399.8,1129,1354.7,1427.2
2026-06-21 00:41:51.683,1399,1128.2,1353.8,1427.2
2026-06-21 00:41:51.684,1399,1129,1353.8,1427.2
2026-06-21 00:41:51.685,1399,1126.6,1354.7,1427.2
2026-06-21 00:41:51.686,1399.8,1129,1353,1427.2
2026-06-21 00:41:51.687,1399.8,1129,1353,1426.4
2026-06-21 00:41:51.688,1403,1132.2,1352.2,1421.5
2026-06-21 00:41:51.689,1399.8,1131.4,1354.7,1418.3
2026-06-21 00:41:51.690,1399.8,1128.2,1353.8,1420.7
2026-06-21 00:41:51.691,1403,1130.6,1355.5,1421.5
2026-06-21 00:41:51.692,1401.4,1130.6,1353,1424
2026-06-21 00:41:51.693,1403,1129,1354.7,1421.5
2026-06-21 00:41:51.694,1403,1125.8,1353.8,1425.6
2026-06-21 00:41:51.695,1402.2,1128.2,1355.5,1424.8
2026-06-21 00:41:51.696,1399.8,1126.6,1354.7,1424.8
2026-06-21 00:41:51.697,1401.4,1125.8,1353.8,1424
2026-06-21 00:41:51.698,1402.2,1131.4,1353.8,1424
2026-06-21 00:41:51.699,1399,1129,1355.5,1424.8
2026-06-21 00:41:51.700,1400.6,1129.8,1354.7,1426.4
2026-06-21 00:41:51.701,1399,1125.8,1353,1427.2
2026-06-21 00:41:51.702,1399.8,1129,1354.7,1425.6
2026-06-21 00:41:51.703,1403,1126.6,1353,1425.6
2026-06-21 00:41:51.704,1401.4,1130.6,1352.2,1424
2026-06-21 00:41:51.705,1399.8,1130.6,1353,1426.4
2026-06-21 00:41:51.706,1401.4,1131.4,1354.7,1426.4
2026-06-21 00:41:51.707,1399.8,1129.8,1354.7,1427.2
2026-06-21 00:41:51.708,1402.2,1129,1352.2,1426.4
2026-06-21 00:41:51.709,1399,1129,1355.5,1426.4
2026-06-21 00:41:51.710,1399.8,1132.2,1355.5,1427.2
2026-06-21 00:41:51.711,1402.2,1132.2,1353,1427.2
2026-06-21 00:41:51.712,1404.6,1132.2,1355.5,1427.2
2026-06-21 00:41:51.706,,1129,1353.8,1427.2
2026-06-21 00:41:51.701,1402.2,1129.8,1353.8,1426.4
2026-06-21 00:41:51.702,1397.4,1129.8,1353.8,1428
2026-06-21 00:41:51.703,1396.6,1129,,1427.2
2026-06-21 00:41:51.704,1397.4,1131.4,1348.2,1427.2
2026-06-21 00:41:51.705,1399,1130.6,1352.2,1427.2
2026-06-21 00:41:51.706,1394.9,1126.6,1349,1427.2
2026-06-21 00:41:51.707,1395.8,1130.6,1349,1427.2
2026-06-21 00:41:51.708,1394.9,1129,1351.4,1427.2
2026-06-21 00:41:51.709,1398.2,1130.6,1349,1427.2
2026-06-21 00:41:51.710,1399.8,1125.8,1352.2,1427.2
2026-06-21 00:41:51.711,1396.6,1130.6,1350.6,1428
2026-06-21 00:41:51.712,1399,1125,1352.2,1427.2
2026-06-21 00:41:51.713,1403,1125.8,1353,1426.4
2026-06-21 00:41:51.714,1399,1129,1353.8,1427.2
2026-06-21 00:41:51.715,1399,1129,1353,1428
2026-06-21 00:41:51.716,1398.2,1129,1353,1427.2
2026-06-21 00:41:51.717,1399.8,1129,1353,1427.2
2026-06-21 00:41:51.718,1397.4,1125,1353,1427.2
2026-06-21 00:41:51.719,1397.4,1125.8,1353,1428.8
2026-06-21 00:41:51.720,1399.8,1129.8,1351.4,1427.2
2026-06-21 00:41:51.721,1397.4,1129,1353,1428.8
2026-06-21 00:41:51.722,1401.4,1125.8,1354.7,1427.2
2026-06-21 00:41:51.723,1399,1129,1352.2,
2026-06-21 00:41:51.724,1399,1125.8,1353,1426.4
2026-06-21 00:41:51.725,1401.4,1127.4,1353,1425.6
2026-06-21 00:41:51.726,1399.8,1130.6,1354.7,1424.8
2026-06-21 00:41:51.727,1399.8,1130.6,1354.7,1425.6
2026-06-21 00:41:51.728,1402.2,1126.6,1354.7,1426.4
2026-06-21 00:41:51.729,1399,1129,1353.8,1422.3
2026-06-21 00:41:51.730,1403,1126.6,1351.4,1426.4
2026-06-21 00:41:51.731,1399,1126.6,1353,1425.6
2026-06-21 00:41:51.732,1403,1129,1353,1426.4
2026-06-21 00:41:51.733,1401.4,1126.6,1354.7,1424
2026-06-21 00:41:51.734,1399,1129,1352.2,1426.4
2026-06-21 00:41:51.735,1403,1129,1353,1427.2
2026-06-21 00:41:51.736,1399,1129,1353.8,1427.2
2026-06-21 00:41:51.737,1402.2,1130.6,1355.5,1426.4
2026-06-21 00:41:51.738,1401.4,1133,1353.8,1427.2
2026-06-21 00:41:51.739,1401.4,1129,1354.7,1426.4
2026-06-21 00:41:51.740,1401.4,1130.6,1353.8,1427.2
2026-06-21 00:41:51.741,1402.2,1129,1355.5,1426.4
2026-06-21 00:41:51.742,1399,1128.2,1353,1426.4
2026-06-21 00:41:51.743,1399,1130.6,1354.7,1424
2026-06-21 00:41:51.744,1399,1129,1355.5,1426.4
2026-06-21 00:41:51.745,1401.4,1128.2,1353.8,1427.2
2026-06-21 00:41:51.746,1403,1129,1353.8,1427.2
2026-06-21 00:41:51.747,1399,1133,1355.5,1427.2
2026-06-21 00:41:51.748,1403,1128.2,1354.7,1427.2
2026-06-21 00:41:51.749,1399,1128.2,1354.7,1427.2
2026-06-21 00:41:51.750,1399,1130.6,1355.5,1426.4
2026-06-21 00:41:51.763,1399,1126.6,1354.7,1427.2
2026-06-21 00:41:51.764,1397.4,1129,1353.8,1425.6
2026-06-21 00:41:51.765,1394.9,1128.2,1353,1427.2
2026-06-21 00:41:51.766,1395.8,1129,1348.2,1428
2026-06-21 00:41:51.767,1395.8,1131.4,1349,1427.2
2026-06-21 00:41:51.768,1396.6,1130.6,1349.8,1427.2
2026-06-21 00:41:51.769,1399,1129,1349,1426.4
2026-06-21 00:41:51.770,1395.8,1131.4,1353,1427.2
2026-06-21 00:41:51.771,1398.2,1130.6,1353.8,1427.2
2026-06-21 00:41:51.772,1397.4,1130.6,1350.6,1428
2026-06-21 00:41:51.773,1396.6,1126.6,1350.6,1427.2
2026-06-21 00:41:51.774,1396.6,1128.2,1355.5,1428
2026-06-21 00:41:51.775,1399,1125,1351.4,1427.2
2026-06-21 00:41:51.776,1397.4,1126.6,1353.8,1427.2
2026-06-21 00:41:51.777,1401.4,1125,1353,1427.2
2026-06-21 00:41:51.778,1399,1126.6,1352.2,1427.2
2026-06-21 00:41:51.779,1399,1125,1353.8,1427.2
2026-06-21 00:41:51.780,1399.8,1125.8,1354.7,1427.2
2026-06-21 00:41:51.781,1399,1125,1349,1428
2026-06-21 00:41:51.782,1399,1125,1352.2,1427.2
2026-06-21 00:41:51.783,1399,1129,1352.2,1428.8
2026-06-21 00:41:51.784,1397.4,1129,1352.2,1427.2
2026-06-21 00:41:51.785,1399.8,1128.2,1353,1427.2
2026-06-21 00:41:51.786,1399.8,1129,1353,1424.8
2026-06-21 00:41:51.787,1399,1126.6,1353.8,1425.6
2026-06-21 00:41:51.788,1397.4,1127.4,1354.7,1424
2026-06-21 00:41:51.789,1401.4,1130.6,1355.5,1424.8
2026-06-21 00:41:51.790,1402.2,1128.2,1353,1425.6
2026-06-21 00:41:51.791,1399,1126.6,1353,1426.4
2026-06-21 00:41:51.792,1399,1129,1353,1427.2
2026-06-21 00:41:51.793,1399,1125.8,1353.8,1426.4
2026-06-21 00:41:51.794,1399,1130.6,1352.2,1426.4
2026-06-21 00:41:51.795,1399,1129,1354.7,1424
2026-06-21 00:41:51.796,1400.6,1129,1354.7,1426.4
2026-06-21 00:41:51.797,1399,1125.8,1351.4,1427.2
2026-06-21 00:41:51.798,1403,1129,1353,1427.2
2026-06-21 00:41:51.799,1399.8,1129,1354.7,1426.4
2026-06-21 00:41:51.800,1399,1129,1353,1424
2026-06-21 00:41:51.801,1399.8,1129,1353,1426.4
2026-06-21 00:41:51.802,1399,1129,1353.8,1427.2
2026-06-21 00:41:51.803,1401.4,1131.4,1354.7,1426.4
2026-06-21 00:41:51.804,1402.2,1129,1349,1426.4
2026-06-21 00:41:51.805,1399,1129,1354.7,1427.2
2026-06-21 00:41:51.806,1402.2,1130.6,1354.7,1427.2
2026-06-21 00:41:51.807,1400.6,1129,1353,1427.2
2026-06-21 00:41:51.808,1403,1126.6,1353.8,1426.4
2026-06-21 00:41:51.809,1402.2,1130.6,1353.8,1425.6
2026-06-21 00:41:51.810,1399,1128.2,1354.7,1427.2
2026-06-21 00:41:51.811,1399,1129,1352.2,1427.2
2026-06-21 00:41:51.812,1399,1129,1349.8,1426.4
2026-06-21 00:41:51.796,1394.9,1133,1351.4,1426.4
2026-06-21 00:41:51.797,1394.9,1129,1352.2,1427.2
2026-06-21 00:41:51.798,1395.8,1126.6,1349,1426.4
2026-06-21 00:41:51.799,1399,1129,1352.2,1426.4
2026-06-21 00:41:51.800,1394.9,1132.2,1355.5,1426.4
2026-06-21 00:41:51.801,1399,1129.8,1348.2,1427.2
2026-06-21 00:41:51.802,1397.4,1128.2,1348.2,1427.2
2026-06-21 00:41:51.803,1397.4,1129,1350.6,1427.2
2026-06-21 00:41:51.804,1399,1129,1351.4,1426.4
2026-06-21 00:41:51.805,1397.4,1126.6,1353,1427.2
2026-06-21 00:41:51.806,1396.6,1125,1352.2,1428
2026-06-21 00:41:51.807,1399,1125.8,1352.2,1427.2
2026-06-21 00:41:51.808,1400.6,1126.6,1351.4,1427.2
2026-06-21 00:41:51.809,1399,1124.2,1351.4,1427.2
2026-06-21 00:41:51.810,1403,1125,1354.7,1427.2
2026-06-21 00:41:51.811,1399,1127.4,1350.6,1427.2
2026-06-21 00:41:51.812,1399,1128.2,1349,1428
2026-06-21 00:41:51.813,1398.2,1129,1353,1427.2
2026-06-21 00:41:51.814,1399.8,1125.8,1353,1428.8
2026-06-21 00:41:51.815,1397.4,1128.2,1353,1427.2
2026-06-21 00:41:51.816,1399.8,1126.6,1353.8,1427.2
2026-06-21 00:41:51.817,1399,1131.4,1349,1427.2
2026-06-21 00:41:51.818,1403,1129,1353,1428
2026-06-21 00:41:51.819,1399,1126.6,1354.7,1427.2
2026-06-21 00:41:51.820,1399,1129,1353,1425.6
2026-06-21 00:41:51.821,1399.8,1129,1354.7,1426.4
2026-06-21 00:41:51.822,1402.2,1129,1354.7,1423.2
2026-06-21 00:41:51.823,1399.8,1126.6,1353,1426.4
2026-06-21 00:41:51.824,1399.8,1125.8,1352.2,1425.6
2026-06-21 00:41:51.825,1399,1130.6,1352.2,1424
2026-06-21 00:41:51.826,1402.2,1129,1354.7,1424
2026-06-21 00:41:51.827,1399,1128.2,1353,1427.2
2026-06-21 00:41:51.828,1398.2,1129,1353.8,1426.4
2026-06-21 00:41:51.829,1399.8,1131.4,1352.2,1426.4
2026-06-21 00:41:51.830,1397.4,1132.2,1353.8,1424
2026-06-21 00:41:51.831,1399.8,1129,1355.5,1428
2026-06-21 00:41:51.832,1399,1129,1353,1426.4
2026-06-21 00:41:51.833,1399.8,1129,1353.8,1427.2
2026-06-21 00:41:51.834,1402.2,1128.2,1354.7,1427.2
2026-06-21 00:41:51.835,1399,1130.6,1353.8,1427.2
2026-06-21 00:41:51.836,1399.8,1129,1353,1427.2
2026-06-21 00:41:51.837,1399.8,1129,1352.2,1426.4
2026-06-21 00:41:51.838,1399.8,1131.4,1353.8,1426.4
2026-06-21 00:41:51.839,1399.8,1128.2,1353,1427.2
2026-06-21 00:41:51.840,1403,1129,1354.7,1426.4
2026-06-21 00:41:51.841,1399.8,1126.6,1352.2,1426.4
2026-06-21 00:41:51.842,1401.4,1128.2,1353,1426.4
2026-06-21 00:41:51.843,1399,1130.6,1353,1427.2
2026-06-21 00:41:51.844,1399,1128.2,1355.5,1427.2
2026-06-21 00:41:51.845,1399,1128.2,1353.8,1427.2
2026-06-21 00:41:51.863,1402.2,1129.8,1353.8,1427.2
2026-06-21 00:41:51.864,1399,1129,1354.7,1426.4
2026-06-21 00:41:51.865,1395.8,1128.2,1353.8,1428
2026-06-21 00:41:51.866,1401.4,1125.8,1349,1426.4
2026-06-21 00:41:51.867,1402.2,1129.8,1351.4,1428.8
2026-06-21 00:41:51.868,1399,1130.6,1352.2,1427.2
2026-06-21 00:41:51.869,1399,1130.6,1350.6,1427.2
2026-06-21 00:41:51.870,1401.4,1129,1348.2,1427.2
2026-06-21 00:41:51.871,1399,1130.6,1352.2,1426.4
2026-06-21 00:41:51.872,1399,1129,1352.2,1427.2
2026-06-21 00:41:51.873,1399,1129,1352.2,1426.4
2026-06-21 00:41:51.874,1397.4,1125,1350.6,1427.2
2026-06-21 00:41:51.875,1396.6,1125.8,1354.7,1427.2
2026-06-21 00:41:51.876,1403,1122.6,1353,1427.2
2026-06-21 00:41:51.877,1401.4,1128.2,1352.2,1428
2026-06-21 00:41:51.878,1399.8,1128.2,1351.4,1427.2
2026-06-21 00:41:51.879,1402.2,1130.6,1355.5,1427.2
2026-06-21 00:41:51.880,1399.8,1129,1353,1427.2
2026-06-21 00:41:51.881,1401.4,1129,1354.7,1426.4
2026-06-21 00:41:51.882,1400.6,1129,1353.8,1427.2
2026-06-21 00:41:51.883,1402.2,1128.2,1352.2,1427.2
2026-06-21 00:41:51.884,1402.2,1130.6,1354.7,1424.8
2026-06-21 00:41:51.885,1399,1129,1353.8,1427.2
2026-06-21 00:41:51.886,1401.4,1128.2,1353.8,1427.2
2026-06-21 00:41:51.887,1399.8,1126.6,1355.5,1426.4
2026-06-21 00:41:51.888,1402.2,1129,1352.2,1425.6
2026-06-21 00:41:51.889,1401.4,1129,1353.8,1425.6
2026-06-21 00:41:51.890,1403,1126.6,1353,1424
2026-06-21 00:41:51.891,1399.8,1126.6,1353.8,1426.4
2026-06-21 00:41:51.892,1403,1129.8,1354.7,1426.4
2026-06-21 00:41:51.893,1399.8,1130.6,1353,1427.2
2026-06-21 00:41:51.894,1399,1129,1353,1426.4
2026-06-21 00:41:51.895,1401.4,1129,1353.8,1424.8
2026-06-21 00:41:51.896,1399,1128.2,1355.5,1426.4
2026-06-21 00:41:51.897,1399,1130.6,1353,1425.6
2026-06-21 00:41:51.898,1403,1130.6,1353,1426.4
2026-06-21 00:41:51.899,1402.2,1129.8,1353.8,1426.4
2026-06-21 00:41:51.900,1401.4,1128.2,1353,1427.2
2026-06-21 00:41:51.901,1403,1129,1353,1427.2
2026-06-21 00:41:51.902,1403,1127.4,1354.7,1427.2
2026-06-21 00:41:51.903,1399,1133,1353,1426.4
2026-06-21 00:41:51.904,1402.2,1129,1355.5,1427.2
2026-06-21 00:41:51.905,1399.8,1129,1353,1426.4
2026-06-21 00:41:51.906,1399.8,1129,1352.2,1427.2
2026-06-21 00:41:51.907,1402.2,1129.8,1353,1427.2
2026-06-21 00:41:51.908,1399.8,1126.6,1353,1427.2
2026-06-21 00:41:51.909,1399,1129,1354.7,1427.2
2026-06-21 00:41:51.910,1399,1129,1354.7,1427.2
2026-06-21 00:41:51.911,1402.2,1129,1353.8,1427.2
2026-06-21 00:41:51.912,1400.6,1129,1353.8,1427.2
2026-06-21 00:41:51.903,1397.4,1129,1354.7,1426.4
2026-06-21 00:41:51.904,1395.8,1129,1355.5,1427.2
2026-06-21 00:41:51.905,1394.9,1128.2,1353,1427.2
2026-06-21 00:41:51.906,1397.4,1129,1348.2,1428
2026-06-21 00:41:51.907,1394.9,1130.6,1349,1427.2
2026-06-21 00:41:51.908,1397.4,1129,1349,1427.2
2026-06-21 00:41:51.909,1399.8,1125.8,1350.6,1427.2
2026-06-21 00:41:51.910,1395.8,1129,1348.2,1427.2
2026-06-21 00:41:51.911,1395.8,1129,1348.2,1429.6
2026-06-21 00:41:51.912,1395.8,1131.4,1348.2,1427.2
2026-06-21 00:41:51.913,1399,1126.6,1353,1426.4
2026-06-21 00:41:51.914,1399,1125,1353,1426.4
2026-06-21 00:41:51.915,1398.2,1124.2,1353,1426.4
2026-06-21 00:41:51.916,1399,1126.6,1351.4,1427.2
2026-06-21 00:41:51.917,1399,1129,1353,1427.2
2026-06-21 00:41:51.918,1399,1128.2,1351.4,1427.2
2026-06-21 00:41:51.919,1399,1123.4,1355.5,1427.2
2026-06-21 00:41:51.920,1399,1129,1352.2,1427.2
2026-06-21 00:41:51.921,1402.2,1128.2,1353,1427.2
2026-06-21 00:41:51.922,1399,1126.6,1355.5,1426.4
2026-06-21 00:41:51.923,1403,1129.8,1353,1427.2
2026-06-21 00:41:51.924,1399,1126.6,1354.7,1426.4
2026-06-21 00:41:51.925,1399,1126.6,1353.8,1427.2
2026-06-21 00:41:51.926,1401.4,1125.8,1354.7,1426.4
2026-06-21 00:41:51.927,1402.2,1129,1352.2,1424.8
2026-06-21 00:41:51.928,1399.8,1128.2,1353,1424
2026-06-21 00:41:51.929,1404.6,1127.4,1353,1423.2
2026-06-21 00:41:51.930,1402.2,1128.2,1350.6,1425.6
2026-06-21 00:41:51.931,1402.2,1130.6,1353,1427.2
2026-06-21 00:41:51.932,1401.4,1129.8,1352.2,1421.5
2026-06-21 00:41:51.933,1402.2,1125.8,1353,1425.6
2026-06-21 00:41:51.934,1399.8,1132.2,1353,1425.6
2026-06-21 00:41:51.935,1401.4,1129,1355.5,1426.4
2026-06-21 00:41:51.936,1399.8,1128.2,1352.2,1427.2
2026-06-21 00:41:51.937,1399,1126.6,1353.8,1426.4
2026-06-21 00:41:51.938,1399.8,1129,1351.4,1427.2
2026-06-21 00:41:51.939,1401.4,1125,1355.5,1427.2
2026-06-21 00:41:51.940,1399.8,1126.6,1353,1427.2
2026-06-21 00:41:51.941,1403.8,1128.2,1353,1425.6
2026-06-21 00:41:51.942,1399,1130.6,1353.8,1426.4
2026-06-21 00:41:51.943,1399,1129,1354.7,1427.2
2026-06-21 00:41:51.944,1399,1125.8,1353,1426.4
2026-06-21 00:41:51.945,1398.2,1125.8,1352.2,1427.2
2026-06-21 00:41:51.946,1399,1129,1353,1427.2
2026-06-21 00:41:51.947,1403.8,1129,1353,1427.2
2026-06-21 00:41:51.948,1403,1125.8,1353,1426.4
2026-06-21 00:41:51.949,1399,1129,1353,1427.2
2026-06-21 00:41:51.950,1399.8,1129,1353,1427.2
2026-06-21 00:41:51.951,1402.2,1125,1355.5,1426.4
2026-06-21 00:41:51.952,1399.8,1125.8,1355.5,1427.2
2026-06-21 00:41:51.963,1399,1129,1353,1427.2
2026-06-21 00:41:51.964,1395.8,1129,1354.7,1427.2
2026-06-21 00:41:51.965,1395.8,1125.8,1353.8,1428
2026-06-21 00:41:51.966,1394.9,1129,1351.4,1427.2
2026-06-21 00:41:51.967,1394.9,1129,1352.2,1426.4
2026-06-21 00:41:51.968,1395.8,1130.6,1350.6,1427.2
2026-06-21 00:41:51.969,1398.2,1133,1351.4,1426.4
2026-06-21 00:41:51.970,1395.8,1132.2,1349,1426.4
2026-06-21 00:41:51.971,1402.2,1130.6,1350.6,1427.2
2026-06-21 00:41:51.972,1399,1130.6,1348.2,1427.2
2026-06-21 00:41:51.973,1399,1123.4,1352.2,1427.2
2026-06-21 00:41:51.974,1402.2,1126.6,1353.8,1427.2
2026-06-21 00:41:51.975,1399,1125.8,1353.8,1426.4
2026-06-21 00:41:51.976,1401.4,1128.2,1353,1427.2
2026-06-21 00:41:51.977,1399.8,1125.8,1352.2,1427.2
2026-06-21 00:41:51.978,1401.4,1125.8,1353,1427.2
2026-06-21 00:41:51.979,1399,1126.6,1352.2,1427.2
2026-06-21 00:41:51.980,1401.4,1128.2,1355.5,1426.4
2026-06-21 00:41:51.981,1401.4,1125.8,1353.8,1427.2
2026-06-21 00:41:51.982,1401.4,1129.8,1352.2,1427.2
2026-06-21 00:41:51.983,1403.8,1124.2,1353,1427.2
2026-06-21 00:41:51.984,1401.4,1125.8,1353,1427.2
2026-06-21 00:41:51.985,1402.2,1129.8,1353,1427.2
2026-06-21 00:41:51.986,1401.4,1126.6,1355.5,1424
2026-06-21 00:41:51.987,1399.8,1125,1354.7,1426.4
2026-06-21 00:41:51.988,1403,1126.6,1353.8,1423.2
2026-06-21 00:41:51.989,1401.4,1128.2,1352.2,1424.8
2026-06-21 00:41:51.990,1399,1129,1353.8,1425.6
2026-06-21 00:41:51.991,1402.2,1130.6,1353.8,1426.4
2026-06-21 00:41:51.992,1405.4,1129,1353,1427.2
2026-06-21 00:41:51.993,1399.8,1130.6,1351.4,1426.4
2026-06-21 00:41:51.994,1399,1126.6,1353,1426.4
2026-06-21 00:41:51.995,1401.4,1129,1354.7,1426.4
2026-06-21 00:41:51.996,1399.8,1125.8,1353.8,1427.2
2026-06-21 00:41:51.997,1401.4,1133,1353,1427.2
2026-06-21 00:41:51.998,1399.8,1129.8,1352.2,1426.4
2026-06-21 00:41:51.999,1402.2,1129,1353,1427.2
2026-06-21 00:41:52.000,1401.4,1129,1352.2,1425.6
2026-06-21 00:41:52.001,1399.8,1126.6,1355.5,1427.2
2026-06-21 00:41:52.002,1398.2,1130.6,1352.2,1425.6
2026-06-21 00:41:52.003,1403,1129,1351.4,1426.4
2026-06-21 00:41:52.004,1403.8,1128.2,1354.7,1425.6
2026-06-21 00:41:52.005,1399.8,1129,1353.8,1427.2
2026-06-21 00:41:52.006,1399.8,1127.4,1353,1427.2
2026-06-21 00:41:52.007,1399.8,1129,1353.8,1427.2
2026-06-21 00:41:52.008,1399.8,1126.6,1353,1427.2
2026-06-21 00:41:52.009,1402.2,1129,1354.7,1427.2
2026-06-21 00:41:52.010,1401.4,1128.2,1352.2,1427.2
2026-06-21 00:41:52.011,1399.8,1130.6,1353,1427.2
2026-06-21 00:41:52.012,1403,1129.8,1354.7,1427.2
2026-06-21 00:41:52.001,1401.4,1130.6,1353.8,1427.2
2026-06-21 00:41:52.002,1396.6,1130.6,1353,1426.4
2026-06-21 00:41:52.003,1394.9,1130.6,1355.5,1427.2
2026-06-21 00:41:52.004,1394.9,1129.8,1355.5,1427.2
2026-06-21 00:41:52.005,1396.6,1126.6,1350.6,1426.4
2026-06-21 00:41:52.006,1395.8,1128.2,1352.2,1427.2
2026-06-21 00:41:52.007,1397.4,1128.2,1353,1427.2
2026-06-21 00:41:52.008,1401.4,1128.2,1349,1427.2
2026-06-21 00:41:52.009,1399,1129,1348.2,1427.2
2026-06-21 00:41:52.010,1399,1126.6,1350.6,1426.4
2026-06-21 00:41:52.011,1399,1129,1353,1427.2
2026-06-21 00:41:52.012,1399,1122.6,1351.4,1427.2
2026-06-21 00:41:52.013,1399,1125.8,1351.4,1427.2
2026-06-21 00:41:52.014,1399,1125,1355.5,1428.8
2026-06-21 00:41:52.015,1399,1123.4,1353,1427.2
2026-06-21 00:41:52.016,1399,1125,1353,1427.2
2026-06-21 00:41:52.017,1399,1125.8,1353,1427.2
2026-06-21 00:41:52.018,1399,1126.6,1353,1427.2
2026-06-21 00:41:52.019,1403,1128.2,1353,1427.2
2026-06-21 00:41:52.020,1399,1125.8,1353,1427.2
2026-06-21 00:41:52.021,1399.8,1128.2,1353,1427.2
2026-06-21 00:41:52.022,1399,1129,1353,1428
2026-06-21 00:41:52.023,1399.8,1127.4,1353.8,1428
2026-06-21 00:41:52.024,1403.8,1125.8,1351.4,1426.4
2026-06-21 00:41:52.025,1399.8,1126.6,1354.7,1426.4
2026-06-21 00:41:52.026,1402.2,1125.8,1354.7,1424.8
2026-06-21 00:41:52.027,1401.4,1129.8,1353,1425.6
2026-06-21 00:41:52.028,1401.4,1129,1353,1426.4
2026-06-21 00:41:52.029,1403,1128.2,1352.2,1427.2
2026-06-21 00:41:52.030,1401.4,1128.2,1351.4,1427.2
2026-06-21 00:41:52.031,1403,1129,1354.7,1427.2
2026-06-21 00:41:52.032,1402.2,1129,1353.8,1424
2026-06-21 00:41:52.033,1403,1126.6,1353,1426.4
2026-06-21 00:41:52.034,1399.8,1129,1353.8,1427.2
2026-06-21 00:41:52.035,1401.4,1128.2,1355.5,1426.4
2026-06-21 00:41:52.036,1401.4,1130.6,1353.8,1426.4
2026-06-21 00:41:52.037,1399.8,1129,1352.2,1426.4
2026-06-21 00:41:52.038,1399.8,1126.6,1355.5,1425.6
2026-06-21 00:41:52.039,1399,1129,1353.8,1425.6
2026-06-21 00:41:52.040,1399.8,1131.4,1349,1427.2
2026-06-21 00:41:52.041,1399,1131.4,1353,1427.2
2026-06-21 00:41:52.042,1401.4,1130.6,1351.4,1426.4
2026-06-21 00:41:52.043,1403,1129,1353,1426.4
2026-06-21 00:41:52.044,1399.8,1129,1354.7,1427.2
2026-06-21 00:41:52.045,1401.4,1130.6,1353,1427.2
2026-06-21 00:41:52.046,1402.2,1128.2,1353,1427.2
2026-06-21 00:41:52.047,1403,1129.8,1353,1426.4
2026-06-21 00:41:52.048,1403,1128.2,1351.4,1428
2026-06-21 00:41:52.049,1403,1128.2,1355.5,1427.2
2026-06-21 00:41:52.050,1399.8,1129.8,1349,1428
2026-06-21 00:41:52.063,1401.4,1129,1355.5,1427.2
2026-06-21 00:41:52.064,1399.8,1126.6,1352.2,1426.4
2026-06-21 00:41:52.065,1395.8,1129,1354.7,1426.4
2026-06-21 00:41:52.066,1394.9,1128.2,1350.6,1427.2
2026-06-21 00:41:52.067,1394.9,1131.4,1354.7,1428
2026-06-21 00:41:52.068,1396.6,1129,1348.2,1427.2
2026-06-21 00:41:52.069,1399.8,1129,1350.6,1427.2
2026-06-21 00:41:52.070,1399,1131.4,1350.6,1427.2
2026-06-21 00:41:52.071,1399,1129,1349,1426.4
2026-06-21 00:41:52.072,1398.2,1129.8,1349.8,1427.2
2026-06-21 00:41:52.073,1399,1125.8,1350.6,1427.2
2026-06-21 00:41:52.074,1399.8,1125,1352.2,1428
2026-06-21 00:41:52.075,1403.8,1126.6,1353,1428.8
2026-06-21 00:41:52.076,1399,1125,1353.8,1426.4
2026-06-21 00:41:52.077,1399.8,1128.2,1354.7,1427.2
2026-06-21 00:41:52.078,1403.8,1129,1351.4,1428.8
2026-06-21 00:41:52.079,1399.8,1124.2,1353,1426.4
2026-06-21 00:41:52.080,1402.2,1124.2,1348.2,1428
2026-06-21 00:41:52.081,1399.8,1125,1351.4,1427.2
2026-06-21 00:41:52.082,1402.2,1126.6,1352.2,1428
2026-06-21 00:41:52.083,1399.8,1125.8,1351.4,1427.2
2026-06-21 00:41:52.084,1399,1129,1353.8,1427.2
2026-06-21 00:41:52.085,1399,1126.6,1353.8,1427.2
2026-06-21 00:41:52.086,1398.2,1124.2,1353.8,1428.8
2026-06-21 00:41:52.087,1399,1126.6,1354.7,1426.4
2026-06-21 00:41:52.088,1403,1129,1355.5,1424
2026-06-21 00:41:52.089,1399.8,1129,1354.7,1424
2026-06-21 00:41:52.090,1403,1126.6,1353,1426.4
2026-06-21 00:41:52.091,1399.8,1125.8,1353,1426.4
2026-06-21 00:41:52.092,1399,1129,1352.2,1425.6
2026-06-21 00:41:52.093,1401.4,1129,1353,1426.4
2026-06-21 00:41:52.094,1399,1129,1353.8,1427.2
2026-06-21 00:41:52.095,1399,1129,1353.8,1426.4
2026-06-21 00:41:52.096,1399.8,1129,1354.7,1426.4
2026-06-21 00:41:52.097,1401.4,1129,1353,1426.4
2026-06-21 00:41:52.098,1400.6,1129,1353,1425.6
2026-06-21 00:41:52.099,1399.8,1131.4,1355.5,1426.4
2026-06-21 00:41:52.100,1399.8,1128.2,1353,1426.4
2026-06-21 00:41:52.101,1402.2,1133,1353.8,1424.8
2026-06-21 00:41:52.102,1399.8,1129,1353,1427.2
2026-06-21 00:41:52.103,1399.8,1129,1354.7,1427.2
2026-06-21 00:41:52.104,1399.8,1131.4,1354.7,1427.2
2026-06-21 00:41:52.105,1399,1125.8,1355.5,1427.2
2026-06-21 00:41:52.106,1403,1126.6,1353,1426.4
2026-06-21 00:41:52.107,1401.4,1125.8,1353.8,1426.4
2026-06-21 00:41:52.108,1399,1129,1353,1427.2
2026-06-21 00:41:52.109,1399.8,1129.8,1355.5,1427.2
2026-06-21 00:41:52.110,1399,1128.2,1353,1427.2
2026-06-21 00:41:52.111,1399.8,1129,1353.8,1427.2
2026-06-21 00:41:52.112,1402.2,1130.6,1352.2,1427.2
2026-06-21 00:41:52.103,1399.8,1128.2,1353,1427.2
2026-06-21 00:41:52.104,1395.8,1130.6,1353,1427.2
2026-06-21 00:41:52.105,1394.9,1127.4,1354.7,1427.2
2026-06-21 00:41:52.106,1396.6,1132.2,1353.8,1427.2
2026-06-21 00:41:52.107,1397.4,1129,1348.2,1426.4
2026-06-21 00:41:52.108,1398.2,1125.8,1349.8,1427.2
2026-06-21 00:41:52.109,1395.8,1128.2,1349.8,1427.2
2026-06-21 00:41:52.110,1397.4,1129,1351.4,1428
2026-06-21 00:41:52.111,1398.2,1128.2,1349,1427.2
2026-06-21 00:41:52.112,1396.6,1129,1349.8,1427.2
2026-06-21 00:41:52.113,1399.8,1129,1352.2,1427.2
2026-06-21 00:41:52.114,1399,1125.8,1353,1427.2
2026-06-21 00:41:52.115,1399.8,1126.6,1353,1427.2
2026-06-21 00:41:52.116,1399.8,1125.8,1349,1426.4
2026-06-21 00:41:52.117,1399,1124.2,1353,1427.2
2026-06-21 00:41:52.118,1399,1125,1353.8,1426.4
2026-06-21 00:41:52.119,1399,1128.2,1352.2,1426.4
2026-06-21 00:41:52.120,1402.2,1125.8,1355.5,1426.4
2026-06-21 00:41:52.121,1399.8,1129,1354.7,1427.2
2026-06-21 00:41:52.122,1399,1129,1353.8,1427.2
2026-06-21 00:41:52.123,1403.8,1129,1352.2,1427.2
2026-06-21 00:41:52.124,1399.8,1124.2,1349,1427.2
2026-06-21 00:41:52.125,1399,1130.6,1350.6,1426.4
2026-06-21 00:41:52.126,1399,1129,1354.7,1428
2026-06-21 00:41:52.127,1399,1129,1352.2,1424
2026-06-21 00:41:52.128,1400.6,1125,1353.8,1426.4
2026-06-21 00:41:52.129,1402.2,1128.2,1354.7,1426.4
2026-06-21 00:41:52.130,1403,1128.2,1352.2,1426.4
2026-06-21 00:41:52.131,1399.8,1126.6,1353.8,1424.8
2026-06-21 00:41:52.132,1399,1132.2,1355.5,1426.4
2026-06-21 00:41:52.133,1399,1129,1353,1424.8
2026-06-21 00:41:52.134,1399.8,1129,1353.8,1426.4
2026-06-21 00:41:52.135,1399.8,1129,1350.6,1425.6
2026-06-21 00:41:52.136,1399,1129.8,1352.2,1426.4
2026-06-21 00:41:52.137,1402.2,1129,1353,1427.2
2026-06-21 00:41:52.138,1402.2,1129.8,1355.5,1426.4
2026-06-21 00:41:52.139,1404.6,1129,1353,1425.6
2026-06-21 00:41:52.140,1399.8,1131.4,1354.7,1425.6
2026-06-21 00:41:52.141,1401.4,1125.8,1353,1426.4
2026-06-21 00:41:52.142,1403,1129,1353,1425.6
2026-06-21 00:41:52.143,1399,1125,1352.2,1426.4
2026-06-21 00:41:52.144,1403,1128.2,1353,1427.2
2026-06-21 00:41:52.145,1402.2,1129,1351.4,1426.4
2026-06-21 00:41:52.146,1403,1127.4,1353.8,1426.4
2026-06-21 00:41:52.147,1401.4,1126.6,1353.8,1427.2
2026-06-21 00:41:52.148,1401.4,1129,1353.8,1427.2
2026-06-21 00:41:52.149,1399,1129,1354.7,1426.4
2026-06-21 00:41:52.150,1399.8,1129,1354.7,1426.4
2026-06-21 00:41:52.151,1401.4,1128.2,1353,1427.2
2026-06-21 00:41:52.152,1402.2,1128.2,1353,1426.4
2026-06-21 00:41:52.163,1399,1129,1352.2,1427.2
2026-06-21 00:41:52.164,1397.4,1129,1355.5,1427.2
2026-06-21 00:41:52.165,1394.9,1126.6,1353.8,1427.2
2026-06-21 00:41:52.166,1394.9,1129,1352.2,1427.2
2026-06-21 00:41:52.167,1395.8,1129.8,1352.2,1427.2
2026-06-21 00:41:52.168,1395.8,1131.4,1349,1427.2
2026-06-21 00:41:52.169,1396.6,1125.8,1349,1427.2
2026-06-21 00:41:52.170,1397.4,1129,1351.4,1426.4
2026-06-21 00:41:52.171,1399,1129,1349,1426.4
2026-06-21 00:41:52.172,1398.2,1129,1349.8,1427.2
2026-06-21 00:41:52.173,1397.4,1125,1353,1427.2
2026-06-21 00:41:52.174,1397.4,1125.8,1352.2,1427.2
2026-06-21 00:41:52.175,1397.4,1124.2,1353,1427.2
2026-06-21 00:41:52.176,1398.2,1126.6,1353,1427.2
2026-06-21 00:41:52.177,1399,1124.2,1350.6,1428
2026-06-21 00:41:52.178,1398.2,1126.6,1353,1427.2
2026-06-21 00:41:52.179,1399.8,1125.8,1353,1428.8
2026-06-21 00:41:52.180,1399.8,1125,1353,1427.2
2026-06-21 00:41:52.181,1399,1125,1355.5,1427.2
2026-06-21 00:41:52.182,1399.8,1129,1355.5,1426.4
2026-06-21 00:41:52.183,1399,1125.8,1353.8,1427.2
2026-06-21 00:41:52.184,1399,1129,1353,1427.2
2026-06-21 00:41:52.185,1398.2,1129,1354.7,1427.2
2026-06-21 00:41:52.186,1398.2,1124.2,1353.8,1427.2
2026-06-21 00:41:52.187,1399,1126.6,1351.4,1423.2
2026-06-21 00:41:52.188,1403,1126.6,1353.8,1424
2026-06-21 00:41:52.189,1399.8,1128.2,1352.2,1425.6
2026-06-21 00:41:52.190,1403.8,1125.8,1351.4,1426.4
2026-06-21 00:41:52.191,1399,1126.6,1353,1426.4
2026-06-21 00:41:52.192,1402.2,1128.2,1353,1424
2026-06-21 00:41:52.193,1398.2,1126.6,1353,1425.6
2026-06-21 00:41:52.194,1399,1129,1353,1427.2
2026-06-21 00:41:52.195,1399.8,1127.4,1355.5,1427.2
2026-06-21 00:41:52.196,1400.6,1129,1353,1427.2
2026-06-21 00:41:52.197,1401.4,1126.6,1354.7,1427.2
2026-06-21 00:41:52.198,1399,1128.2,1353.8,1427.2
2026-06-21 00:41:52.199,1403,1128.2,1353,1427.2
2026-06-21 00:41:52.200,1399,1129,1355.5,1427.2
2026-06-21 00:41:52.201,1399,1126.6,1351.4,1427.2
2026-06-21 00:41:52.202,1399,1125.8,1354.7,1426.4
2026-06-21 00:41:52.203,1403,1129,1353.8,1426.4
2026-06-21 00:41:52.204,1403,1130.6,1352.2,1427.2
2026-06-21 00:41:52.205,1402.2,1129,1353,1426.4
2026-06-21 00:41:52.206,1399,1129,1353,1426.4
2026-06-21 00:41:52.207,1399.8,1126.6,1353,1426.4
2026-06-21 00:41:52.208,1403,1128.2,1354.7,1427.2
2026-06-21 00:41:52.209,1399.8,1126.6,1353,1427.2
2026-06-21 00:41:52.210,1399.8,1125.8,1353,1426.4
2026-06-21 00:41:52.211,1399.8,1129.8,1353,1427.2
2026-06-21 00:41:52.212,1403,1126.6,1353,1427.2
2026-06-21 00:41:52.205,1399.8,1126.6,1353,1426.4
2026-06-21 00:41:52.206,1394.9,1130.6,1354.7,1427.2
2026-06-21 00:41:52.207,1394.9,1125.8,1352.2,1427.2
2026-06-21 00:41:52.208,1394.9,1132.2,1355.5,1425.6
2026-06-21 00:41:52.209,1396.6,1132.2,1352.2,1427.2
2026-06-21 00:41:52.210,1395.8,1129,1350.6,1426.4
2026-06-21 00:41:52.211,1397.4,1130.6,1348.2,1427.2
2026-06-21 00:41:52.212,1397.4,1129,1349.8,1427.2
2026-06-21 00:41:52.213,1399,1129.8,1354.7,1427.2
2026-06-21 00:41:52.214,1399,1129,1351.4,1426.4
2026-06-21 00:41:52.215,1403.8,1129,1355.5,1428
2026-06-21 00:41:52.216,1403,1125,1351.4,1427.2
2026-06-21 00:41:52.217,1399,1125,1353,1427.2
2026-06-21 00:41:52.218,1401.4,1124.2,1353,1427.2
2026-06-21 00:41:52.219,1401.4,1125,1351.4,1426.4
2026-06-21 00:41:52.220,1399.8,1124.2,1350.6,1428
2026-06-21 00:41:52.221,1399.8,1127.4,1353,1427.2
2026-06-21 00:41:52.222,1403,1126.6,1353,1427.2
2026-06-21 00:41:52.223,1403,1127.4,1353,1427.2
2026-06-21 00:41:52.224,1401.4,1129,1354.7,1427.2
2026-06-21 00:41:52.225,1403,1129,1355.5,1427.2
2026-06-21 00:41:52.226,1399.8,1126.6,1353,1427.2
2026-06-21 00:41:52.227,1399.8,1129,1351.4,1426.4
2026-06-21 00:41:52.228,1402.2,1125,1353.8,1423.2
2026-06-21 00:41:52.229,1399,1126.6,1353.8,1426.4
2026-06-21 00:41:52.230,1399,1126.6,1353,1426.4
2026-06-21 00:41:52.231,1399,1132.2,1352.2,1426.4
2026-06-21 00:41:52.232,1399,1129,1353.8,1425.6
2026-06-21 00:41:52.233,1402.2,1125.8,1353.8,1424
2026-06-21 00:41:52.234,1401.4,1129,1354.7,1426.4
2026-06-21 00:41:52.235,1399.8,1129,1355.5,1425.6
2026-06-21 00:41:52.236,1399,1126.6,1353,1426.4
2026-06-21 00:41:52.237,1402.2,1128.2,1350.6,1426.4
2026-06-21 00:41:52.238,1403,1126.6,1354.7,1427.2
2026-06-21 00:41:52.239,1403,1125.8,1353,1426.4
2026-06-21 00:41:52.240,1399.8,1129,1353,1426.4
2026-06-21 00:41:52.241,1402.2,1126.6,1353,1426.4
2026-06-21 00:41:52.242,1402.2,1129,1353,1426.4
2026-06-21 00:41:52.243,1399.8,1125,1353,1426.4
2026-06-21 00:41:52.244,1399,1129.8,1353,1427.2
2026-06-21 00:41:52.245,1399.8,1129,1353,1427.2
2026-06-21 00:41:52.246,1399,1129,1351.4,1427.2
2026-06-21 00:41:52.247,1402.2,1128.2,1353,1425.6
2026-06-21 00:41:52.248,1399.8,1129,1354.7,1425.6
2026-06-21 00:41:52.249,1399.8,1130.6,1353,1427.2
2026-06-21 00:41:52.250,1399,1125,1353,1426.4
2026-06-21 00:41:52.251,1399.8,1129,1353,1424
2026-06-21 00:41:52.252,1399.8,1132.2,1352.2,1426.4
2026-06-21 00:41:52.253,1399.8,1129,1353,1427.2
2026-06-21 00:41:52.254,1399.8,1129,1352.2,1427.2
2026-06-21 00:41:52.263,1396.6,1129,1354.7,1427.2
2026-06-21 00:41:52.264,1395.8,1129.8,1352.2,1424.8
2026-06-21 00:41:52.265,1397.4,1127.4,1354.7,1426.4
2026-06-21 00:41:52.266,1395.8,1130.6,1354.7,1427.2
2026-06-21 00:41:52.267,1396.6,1129,1350.6,1427.2
2026-06-21 00:41:52.268,1397.4,1129,1350.6,1427.2
2026-06-21 00:41:52.269,1398.2,1129,1349,1427.2
2026-06-21 00:41:52.270,1397.4,1126.6,1349.8,1427.2
2026-06-21 00:41:52.271,1398.2,1126.6,1351.4,1427.2
2026-06-21 00:41:52.272,1399.8,1129,1350.6,1426.4
2026-06-21 00:41:52.273,1399,1129,1350.6,1427.2
2026-06-21 00:41:52.274,1399,1125,1353,1427.2
2026-06-21 00:41:52.275,1403,1123.4,1353,1428
2026-06-21 00:41:52.276,1399,1125.8,1353,1428
2026-06-21 00:41:52.277,1403,1129,1353,1427.2
2026-06-21 00:41:52.278,1401.4,1128.2,1354.7,1427.2
2026-06-21 00:41:52.279,1399,1126.6,1353,1426.4
2026-06-21 00:41:52.280,1399,1125.8,1352.2,1427.2
2026-06-21 00:41:52.281,1399,1126.6,1353,1427.2
2026-06-21 00:41:52.282,1399,1125,1351.4,1427.2
2026-06-21 00:41:52.283,1402.2,1125,1353,1428.8
2026-06-21 00:41:52.284,1399,1126.6,1351.4,1428
2026-06-21 00:41:52.285,1399,1129,1353,1428
2026-06-21 00:41:52.286,1403,1126.6,1353,1422.3
2026-06-21 00:41:52.287,1399,1125,1355.5,1425.6
2026-06-21 00:41:52.288,1402.2,1129,1353,1424
2026-06-21 00:41:52.289,1400.6,1129,1353.8,1424
2026-06-21 00:41:52.290,1401.4,1126.6,1354.7,1425.6
2026-06-21 00:41:52.291,1399,1130.6,1355.5,1425.6
2026-06-21 00:41:52.292,1400.6,1129,1354.7,1424
2026-06-21 00:41:52.293,1399.8,1128.2,1355.5,1426.4
2026-06-21 00:41:52.294,1401.4,1129.8,1354.7,1425.6
2026-06-21 00:41:52.295,1399.8,1129.8,1354.7,1427.2
2026-06-21 00:41:52.296,1399.8,1129,1354.7,1426.4
2026-06-21 00:41:52.297,1399,1129,1353,1427.2
2026-06-21 00:41:52.298,1401.4,1130.6,1354.7,1427.2
2026-06-21 00:41:52.299,1399.8,1129,1354.7,1425.6
2026-06-21 00:41:52.300,1399.8,1133,1354.7,1424
2026-06-21 00:41:52.301,1399,1129,1355.5,1427.2
2026-06-21 00:41:52.302,1405.4,1130.6,1352.2,1426.4
2026-06-21 00:41:52.303,1399.8,1129,1351.4,1427.2
2026-06-21 00:41:52.304,1402.2,1128.2,1353,1426.4
2026-06-21 00:41:52.305,1402.2,1125,1353,1427.2
2026-06-21 00:41:52.306,1401.4,1129,1353,1426.4
2026-06-21 00:41:52.307,1399.8,1128.2,1353,1426.4
2026-06-21 00:41:52.308,1399,1127.4,1352.2,1426.4
2026-06-21 00:41:52.309,1399,1129,1354.7,1426.4
2026-06-21 00:41:52.310,1403,1128.2,1352.2,1427.2
2026-06-21 00:41:52.311,1402.2,1125.8,1353,1427.2
2026-06-21 00:41:52.312,1399,1129,1353,1426.4
2026-06-21 00:41:52.307,,1126.6,1354.7,1427.2
2026-06-21 00:41:52.303,1403,1129,1353,1427.2
2026-06-21 00:41:52.304,1399,1130.6,1353,1427.2
2026-06-21 00:41:52.305,1394.9,1128.2,,1427.2
2026-06-21 00:41:52.306,1396.6,1129,1353,1427.2
2026-06-21 00:41:52.307,1394.9,1129,1349,1427.2
2026-06-21 00:41:52.308,1396.6,1129,1345,1427.2
2026-06-21 00:41:52.309,1395.8,1129.8,1353,1427.2
2026-06-21 00:41:52.310,1399,1125,1348.2,1426.4
2026-06-21 00:41:52.311,1402.2,1129,1349,1427.2
2026-06-21 00:41:52.312,1397.4,1128.2,1348.2,1428.8
2026-06-21 00:41:52.313,1399,1121.8,1349,1427.2
2026-06-21 00:41:52.314,1401.4,1125,1353,1427.2
2026-06-21 00:41:52.315,1399,1129,1353,1427.2
2026-06-21 00:41:52.316,1399,1126.6,1353,1429.6
2026-06-21 00:41:52.317,1399.8,1128.2,1353,1427.2
2026-06-21 00:41:52.318,1395.8,1130.6,1353,1427.2
2026-06-21 00:41:52.319,1401.4,1124.2,1353.8,1427.2
2026-06-21 00:41:52.320,1399.8,1128.2,1352.2,1427.2
2026-06-21 00:41:52.321,1399,1125,1354.7,1427.2
2026-06-21 00:41:52.322,1403,1126.6,1353,1426.4
2026-06-21 00:41:52.323,1399.8,1128.2,1353,1427.2
2026-06-21 00:41:52.324,1401.4,1126.6,1349,1427.2
2026-06-21 00:41:52.325,1399,1130.6,1355.5,1426.4
2026-06-21 00:41:52.326,1399.8,1125.8,1352.2,1424
2026-06-21 00:41:52.327,1400.6,1129,1353.8,1422.3
2026-06-21 00:41:52.328,1399.8,1129,1349,1427.2
2026-06-21 00:41:52.329,1402.2,1126.6,1353,1422.3
2026-06-21 00:41:52.330,1399,1129,1354.7,1423.2
2026-06-21 00:41:52.331,1399.8,1128.2,1350.6,1426.4
2026-06-21 00:41:52.332,1399.8,1127.4,1352.2,1426.4
2026-06-21 00:41:52.333,1403,1129,1353,1427.2
2026-06-21 00:41:52.334,1403,1129,1354.7,1424.8
2026-06-21 00:41:52.335,1403,1129,1353,1426.4
2026-06-21 00:41:52.336,1403,1126.6,1354.7,1427.2
2026-06-21 00:41:52.337,1399.8,1129.8,1355.5,1427.2
2026-06-21 00:41:52.338,1401.4,1129,1354.7,1426.4
2026-06-21 00:41:52.339,1403,1129,1353.8,1425.6
2026-06-21 00:41:52.340,1402.2,1125.8,1352.2,1427.2
2026-06-21 00:41:52.341,1399.8,1125.8,1353,1427.2
2026-06-21 00:41:52.342,1399,1129,1353.8,1428
2026-06-21 00:41:52.343,1403,1126.6,1353,1427.2
2026-06-21 00:41:52.344,1402.2,1126.6,1353.8,1426.4
2026-06-21 00:41:52.345,1399.8,1130.6,1355.5,1427.2
2026-06-21 00:41:52.346,1399,1128.2,1353,1427.2
2026-06-21 00:41:52.347,1399.8,1130.6,1353,1426.4
2026-06-21 00:41:52.348,1399,1129,1354.7,1427.2
2026-06-21 00:41:52.349,1400.6,1129.8,1354.7,1427.2
2026-06-21 00:41:52.350,1403.8,1125,1353,1426.4
2026-06-21 00:41:52.351,1403,1129,1353,1427.2
2026-06-21 00:41:52.352,1399,1126.6,1353.8,1427.2
2026-06-21 00:41:52.363,1399,1131.4,1353.8,1426.4
2026-06-21 00:41:52.364,1397.4,1132.2,1354.7,1426.4
2026-06-21 00:41:52.365,1394.9,1130.6,1353,1427.2
2026-06-21 00:41:52.366,1394.9,1132.2,1352.2,1427.2
2026-06-21 00:41:52.367,1395.8,1133,1346.6,1427.2
2026-06-21 00:41:52.368,1397.4,1128.2,1349,1427.2
2026-06-21 00:41:52.369,1396.6,1128.2,1348.2,1427.2
2026-06-21 00:41:52.370,1399.8,1131.4,1352.2,1427.2
2026-06-21 00:41:52.371,1399.8,1129,1353,1427.2
2026-06-21 00:41:52.372,1399,1129,1351.4,1426.4
2026-06-21 00:41:52.373,1399,1124.2,1352.2,1426.4
2026-06-21 00:41:52.374,1399,1129,1353.8,1427.2
2026-06-21 00:41:52.375,1399.8,1124.2,1353,1426.4
2026-06-21 00:41:52.376,1403,1126.6,1351.4,1428
2026-06-21 00:41:52.377,1403,1129.8,1354.7,1427.2
2026-06-21 00:41:52.378,1399.8,1125.8,1352.2,1427.2
2026-06-21 00:41:52.379,1399,1127.4,1351.4,1427.2
2026-06-21 00:41:52.380,1399,1129,1353,1427.2
2026-06-21 00:41:52.381,1402.2,1128.2,1353,1427.2
2026-06-21 00:41:52.382,1400.6,1128.2,1352.2,1427.2
2026-06-21 00:41:52.383,1399.8,1129,1354.7,1427.2
2026-06-21 00:41:52.384,1399,1128.2,1354.7,1426.4
2026-06-21 00:41:52.385,1399,1129,1353,1422.3
2026-06-21 00:41:52.386,1403,1129,1353,1424
2026-06-21 00:41:52.387,1397.4,1129,1353,1426.4
2026-06-21 00:41:52.388,1402.2,1126.6,1353.8,1425.6
2026-06-21 00:41:52.389,1402.2,1125.8,1353,1426.4
2026-06-21 00:41:52.390,1399,1126.6,1353,1426.4
2026-06-21 00:41:52.391,1399.8,1129,1355.5,1427.2
2026-06-21 00:41:52.392,1399,1128.2,1353,1426.4
2026-06-21 00:41:52.393,1403,1128.2,1354.7,1426.4
2026-06-21 00:41:52.394,1399.8,1128.2,1354.7,1425.6
2026-06-21 00:41:52.395,1399.8,1129,1352.2,1426.4
2026-06-21 00:41:52.396,1400.6,1129,1352.2,1427.2
2026-06-21 00:41:52.397,1399,1129,1352.2,1426.4
2026-06-21 00:41:52.398,1399,1130.6,1353.8,1427.2
2026-06-21 00:41:52.399,1399,1125.8,1353,1427.2
2026-06-21 00:41:52.400,1398.2,1126.6,1353,1425.6
2026-06-21 00:41:52.401,1403,1129,1353.8,1426.4
2026-06-21 00:41:52.402,1399.8,1129,1353.8,1426.4
2026-06-21 00:41:52.403,1399.8,1130.6,1352.2,1426.4
2026-06-21 00:41:52.404,1399.8,1128.2,1354.7,1427.2
2026-06-21 00:41:52.405,1399,1125.8,1355.5,1427.2
2026-06-21 00:41:52.406,1399,1129,1353,1427.2
2026-06-21 00:41:52.407,1403,1126.6,1353.8,1426.4
2026-06-21 00:41:52.408,1403,1126.6,1355.5,1426.4
2026-06-21 00:41:52.409,1399,1129,1352.2,1428
2026-06-21 00:41:52.410,1399,1129.8,1353.8,1427.2
2026-06-21 00:41:52.411,1402.2,1126.6,1353,1427.2
2026-06-21 00:41:52.412,1399,1125,1353.8,1427.2
2026-06-21 00:41:52.400,1397.4,1130.6,1354.7,1427.2
2026-06-21 00:41:52.401,1394.9,1125.8,1355.5,1427.2
2026-06-21 00:41:52.402,1394.9,1129.8,1353,1427.2
2026-06-21 00:41:52.403,1394.9,1129,1352.2,1427.2
2026-06-21 00:41:52.404,1399,1128.2,1350.6,1426.4
2026-06-21 00:41:52.405,1395.8,1131.4,1351.4,1427.2
2026-06-21 00:41:52.406,1397.4,1132.2,1349,1427.2
2026-06-21 00:41:52.407,1397.4,1129,1349,1428.8
2026-06-21 00:41:52.408,1398.2,1128.2,1351.4,1427.2
2026-06-21 00:41:52.409,1397.4,1131.4,1352.2,1426.4
2026-06-21 00:41:52.410,1399,1121.8,1353,1427.2
2026-06-21 00:41:52.411,1399.8,1123.4,1355.5,1427.2
2026-06-21 00:41:52.412,1399.8,1125,1353,1428
2026-06-21 00:41:52.413,1399.8,1125,1353,1427.2
2026-06-21 00:41:52.414,1399,1126.6,1352.2,1427.2
2026-06-21 00:41:52.415,1401.4,1123.4,1353.8,1427.2
2026-06-21 00:41:52.416,1399.8,1125.8,1353,1427.2
2026-06-21 00:41:52.417,1404.6,1126.6,1351.4,1428
2026-06-21 00:41:52.418,1399.8,1125.8,1352.2,1427.2
2026-06-21 00:41:52.419,1399,1129,1351.4,1427.2
2026-06-21 00:41:52.420,1399,1126.6,1351.4,1427.2
2026-06-21 00:41:52.421,1402.2,1129,1353,1427.2
2026-06-21 00:41:52.422,1403,1129,1353,1425.6
2026-06-21 00:41:52.423,1402.2,1129,1355.5,1425.6
2026-06-21 00:41:52.424,1399.8,1129,1353.8,1425.6
2026-06-21 00:41:52.425,1403,1126.6,1353,1426.4
2026-06-21 00:41:52.426,1401.4,1127.4,1354.7,1426.4
2026-06-21 00:41:52.427,1399.8,1126.6,1352.2,1425.6
2026-06-21 00:41:52.428,1399,1129.8,1353,1427.2
2026-06-21 00:41:52.429,1399.8,1128.2,1353,1425.6
2026-06-21 00:41:52.430,1402.2,1128.2,1353,1427.2
2026-06-21 00:41:52.431,1399.8,1129,1353.8,1424.8
2026-06-21 00:41:52.432,1397.4,1128.2,1354.7,1427.2
2026-06-21 00:41:52.433,1399,1130.6,1353,1426.4
2026-06-21 00:41:52.434,1399.8,1129.8,1353,1426.4
2026-06-21 00:41:52.435,1399,1128.2,1353,1427.2
2026-06-21 00:41:52.436,1401.4,1130.6,1354.7,1426.4
2026-06-21 00:41:52.437,1402.2,1126.6,1353,1426.4
2026-06-21 00:41:52.438,1401.4,1129,1354.7,1427.2
2026-06-21 00:41:52.439,1402.2,1129,1352.2,1426.4
2026-06-21 00:41:52.440,1399.8,1129,1349,1427.2
2026-06-21 00:41:52.441,1403.8,1129,1353,1426.4
2026-06-21 00:41:52.442,1399.8,1132.2,1353,1424.8
2026-06-21 00:41:52.443,1403.8,1127.4,1355.5,1426.4
2026-06-21 00:41:52.444,1402.2,1129,1354.7,1426.4
2026-06-21 00:41:52.445,1401.4,1129,1353,1426.4
2026-06-21 00:41:52.446,1401.4,1130.6,1353,1426.4
2026-06-21 00:41:52.447,1399,1128.2,1353,1426.4
2026-06-21 00:41:52.448,1402.2,1130.6,1353.8,1427.2
2026-06-21 00:41:52.449,1405.4,1130.6,1353.8,1424.8
2026-06-21 00:41:52.463,1403,1130.6,1354.7,1427.2
2026-06-21 00:41:52.464,1396.6,1129,1354.7,1425.6
2026-06-21 00:41:52.465,1394.9,1128.2,1355.5,1427.2
2026-06-21 00:41:52.466,1395.8,1131.4,1351.4,1427.2
2026-06-21 00:41:52.467,1397.4,1131.4,1349,1427.2
2026-06-21 00:41:52.468,1397.4,1132.2,1349.8,1427.2
2026-06-21 00:41:52.469,1398.2,1126.6,1348.2,1427.2
2026-06-21 00:41:52.470,1396.6,1129,1350.6,1426.4
2026-06-21 00:41:52.471,1399,1130.6,1349,1427.2
2026-06-21 00:41:52.472,1399.8,1128.2,1353,1428.8
2026-06-21 00:41:52.473,1399,1125,1352.2,1428
2026-06-21 00:41:52.474,1397.4,1124.2,1353,1427.2
2026-06-21 00:41:52.475,1399,1125,1353,1427.2
2026-06-21 00:41:52.476,1399,1127.4,1353,1429.6
2026-06-21 00:41:52.477,1399.8,1125.8,1355.5,1426.4
2026-06-21 00:41:52.478,1399,1128.2,1353,1427.2
2026-06-21 00:41:52.479,1403,1124.2,1353,1427.2
2026-06-21 00:41:52.480,1399,1125.8,1353,1427.2
2026-06-21 00:41:52.481,1399.8,1129,1349,1427.2
2026-06-21 00:41:52.482,1399.8,1126.6,1353.8,1427.2
2026-06-21 00:41:52.483,1399,1126.6,1351.4,1427.2
2026-06-21 00:41:52.484,1399,1125.8,1354.7,1427.2
2026-06-21 00:41:52.485,1403,1126.6,1352.2,1425.6
2026-06-21 00:41:52.486,1399.8,1129,1353.8,1421.5
2026-06-21 00:41:52.487,1401.4,1129,1353,1426.4
2026-06-21 00:41:52.488,1399,1129,1352.2,1422.3
2026-06-21 00:41:52.489,1399.8,1125.8,1351.4,1423.2
2026-06-21 00:41:52.490,1399.8,1129,1353.8,1423.2
2026-06-21 00:41:52.491,1399,1128.2,1353,1424.8
2026-06-21 00:41:52.492,1399.8,1129.8,1353,1424
2026-06-21 00:41:52.493,1399.8,1129.8,1353.8,1423.2
2026-06-21 00:41:52.494,1399.8,1126.6,1353.8,1424.8
