# participant=P001 | sex=male | age=22 | weight_kg=68 | height_cm=175
# exercise=cycling | trial_no=1 | label=cycling | session=2026-06-20T19:10:55.280Z | tz=Asia/Calcutta
datetime_local,muscle1_raw_mV,muscle2_raw_mV,muscle3_raw_mV,muscle4_raw_mV
2026-06-21 00:40:55.234,,,,1427.2
2026-06-21 00:40:55.235,,,,1426.4
2026-06-21 00:40:55.236,,,,1427.2
2026-06-21 00:40:55.237,,,,1428
2026-06-21 00:40:55.238,,,,1427.2
2026-06-21 00:40:55.239,,,,1427.2
2026-06-21 00:40:55.240,,,,1427.2
2026-06-21 00:40:55.241,,,,1428.8
2026-06-21 00:40:55.238,1406.2,,,1427.2
2026-06-21 00:40:55.239,1399,,,1428.8
2026-06-21 00:40:55.240,1395.8,,,1426.4
2026-06-21 00:40:55.241,1399,,,1428
2026-06-21 00:40:55.242,1397.4,,,1428
2026-06-21 00:40:55.243,1397.4,,,1428.8
2026-06-21 00:40:55.244,1396.6,,,1431.2
2026-06-21 00:40:55.245,1395.8,,,1428
2026-06-21 00:40:55.246,1399,,,1428
2026-06-21 00:40:55.247,1399.8,,,1428
2026-06-21 00:40:55.248,1401.4,,,1428.8
2026-06-21 00:40:55.249,1399,,,1429.6
2026-06-21 00:40:55.250,1399,,1370,1427.2
2026-06-21 00:40:55.251,1399,,1364.3,1428.8
2026-06-21 00:40:55.252,1401.4,,1365.9,1428.8
2026-06-21 00:40:55.253,1401.4,,1364.3,1428
2026-06-21 00:40:55.254,1401.4,1123.4,1365.9,1429.6
2026-06-21 00:40:55.255,1403,1125,1366.7,1429.6
2026-06-21 00:40:55.256,1403,1125,1366.7,1431.2
2026-06-21 00:40:55.257,1402.2,1125.8,1365.9,1429.6
2026-06-21 00:40:55.258,1402.2,1128.2,1365.9,1430.4
2026-06-21 00:40:55.259,1399.8,1131.4,1365.9,1429.6
2026-06-21 00:40:55.260,1402.2,1131.4,1366.7,1429.6
2026-06-21 00:40:55.261,1399.8,1132.2,1364.3,1429.6
2026-06-21 00:40:55.262,1403,1129,1366.7,1429.6
2026-06-21 00:40:55.263,1403.8,1129.8,1366.7,1430.4
2026-06-21 00:40:55.264,1406.2,1130.6,1368.4,1429.6
2026-06-21 00:40:55.265,1404.6,1129,1365.9,1428
2026-06-21 00:40:55.266,1403,1132.2,1367.5,1427.2
2026-06-21 00:40:55.267,1406.2,1133,1366.7,1429.6
2026-06-21 00:40:55.268,1401.4,1133,1365.9,1428.8
2026-06-21 00:40:55.269,1400.6,1133,1366.7,1428
2026-06-21 00:40:55.270,1402.2,1133,1366.7,1427.2
2026-06-21 00:40:55.271,1399.8,1133,1364.3,1430.4
2026-06-21 00:40:55.272,1399,1133,1366.7,1430.4
2026-06-21 00:40:55.273,1399.8,1131.4,1366.7,1429.6
2026-06-21 00:40:55.274,1399,1133.8,1368.4,1429.6
2026-06-21 00:40:55.275,1403.8,1135.5,1366.7,1430.4
2026-06-21 00:40:55.276,1403,1134.7,1365.9,1428.8
2026-06-21 00:40:55.277,1399,1133,1366.7,1429.6
2026-06-21 00:40:55.278,1403,1133,1367.5,1430.4
2026-06-21 00:40:55.279,1401.4,1133,1370,1430.4
2026-06-21 00:40:55.280,1399.8,1133,1366.7,1426.4
2026-06-21 00:40:55.281,1406.2,1133,1370,1425.6
2026-06-21 00:40:55.282,1399.8,1133.8,1372.4,1426.4
2026-06-21 00:40:55.283,1401.4,1133,1366.7,1427.2
2026-06-21 00:40:55.284,1403,1133,1366.7,1427.2
2026-06-21 00:40:55.285,1402.2,1133.8,1366.7,1427.2
2026-06-21 00:40:55.286,1402.2,1133,1364.3,1427.2
2026-06-21 00:40:55.287,1403,1133,1366.7,1427.2
2026-06-21 00:40:55.305,1403,1133,1366.7,1427.2
2026-06-21 00:40:55.306,1394.9,1133.8,1369.2,1428
2026-06-21 00:40:55.307,1399,1133,1366.7,1427.2
2026-06-21 00:40:55.308,1414.3,1133,1368.4,1427.2
2026-06-21 00:40:55.309,1394.9,1130.6,1366.7,1427.2
2026-06-21 00:40:55.310,1397.4,1132.2,1367.5,1428
2026-06-21 00:40:55.311,1399,1133,1365.9,1428
2026-06-21 00:40:55.312,1403,1133,1369.2,1428
2026-06-21 00:40:55.313,1399,1133,1366.7,1428
2026-06-21 00:40:55.314,1403,1133,1366.7,1429.6
2026-06-21 00:40:55.315,1399.8,1133,1365.9,1428.8
2026-06-21 00:40:55.316,1399.8,1130.6,1366.7,1428.8
2026-06-21 00:40:55.317,1403,1129,1361.9,1427.2
2026-06-21 00:40:55.318,1403,1132.2,1365.9,1430.4
2026-06-21 00:40:55.319,1399.8,1132.2,1362.7,1430.4
2026-06-21 00:40:55.320,1399,1132.2,1362.7,1429.6
2026-06-21 00:40:55.321,1399.8,1125.8,1368.4,1431.2
2026-06-21 00:40:55.322,1397.4,1125,1365.9,1428.8
2026-06-21 00:40:55.323,1396.6,1129,1365.1,1428.8
2026-06-21 00:40:55.324,1399,1129,1365.9,1430.4
2026-06-21 00:40:55.325,1402.2,1129.8,1367.5,1430.4
2026-06-21 00:40:55.326,1399,1131.4,1366.7,1430.4
2026-06-21 00:40:55.327,1399.8,1132.2,1367.5,1429.6
2026-06-21 00:40:55.328,1403,1131.4,1365.9,1429.6
2026-06-21 00:40:55.329,1403,1133,1366.7,1430.4
2026-06-21 00:40:55.330,1401.4,1133,1366.7,1430.4
2026-06-21 00:40:55.331,1401.4,1132.2,1366.7,1428
2026-06-21 00:40:55.332,1403.8,1133,1367.5,1428.8
2026-06-21 00:40:55.333,1405.4,1133,1364.3,1430.4
2026-06-21 00:40:55.334,1403,1133,1365.9,1429.6
2026-06-21 00:40:55.335,1402.2,1133,1366.7,1429.6
2026-06-21 00:40:55.336,1399.8,1131.4,1366.7,1429.6
2026-06-21 00:40:55.337,1399,1133,1366.7,1429.6
2026-06-21 00:40:55.338,1399.8,1132.2,1366.7,1428.8
2026-06-21 00:40:55.339,1404.6,1133,1367.5,1429.6
2026-06-21 00:40:55.340,1406.2,1133,1367.5,1430.4
2026-06-21 00:40:55.341,1406.2,1133,1366.7,1428.8
2026-06-21 00:40:55.342,1402.2,1130.6,1365.9,1428.8
2026-06-21 00:40:55.343,1404.6,1131.4,1367.5,1431.2
2026-06-21 00:40:55.344,1402.2,1128.2,1367.5,1432
2026-06-21 00:40:55.345,1403,1131.4,1366.7,1428
2026-06-21 00:40:55.346,1403,1133,1366.7,1428.8
2026-06-21 00:40:55.347,1403,1130.6,1367.5,1427.2
2026-06-21 00:40:55.348,1404.6,1125,1369.2,1426.4
2026-06-21 00:40:55.349,1405.4,1125.8,1366.7,1427.2
2026-06-21 00:40:55.350,1405.4,1133,1366.7,1427.2
2026-06-21 00:40:55.351,1403.8,1133,1368.4,1428.8
2026-06-21 00:40:55.352,1403.8,1130.6,1366.7,1427.2
2026-06-21 00:40:55.353,1406.2,1131.4,1365.1,1430.4
2026-06-21 00:40:55.354,1404.6,1131.4,1368.4,1427.2
2026-06-21 00:40:55.337,1402.2,1129.8,1370.8,1428
2026-06-21 00:40:55.338,1397.4,1282.1,1369.2,1428.8
2026-06-21 00:40:55.339,1399,1276.5,1366.7,1427.2
2026-06-21 00:40:55.340,1399,1264.4,1366.7,1427.2
2026-06-21 00:40:55.341,1397.4,1253.1,1368.4,1427.2
2026-06-21 00:40:55.342,1399,1240.2,1366.7,1427.2
2026-06-21 00:40:55.343,1397.4,1228.9,1366.7,1427.2
2026-06-21 00:40:55.344,1398.2,1220.9,1366.7,1428.8
2026-06-21 00:40:55.345,1399.8,1212,1366.7,1428
2026-06-21 00:40:55.346,1399,1203.2,1367.5,1429.6
2026-06-21 00:40:55.347,1399,1195.9,1366.7,1427.2
2026-06-21 00:40:55.348,1399,1187.8,1366.7,1432.8
2026-06-21 00:40:55.349,1397.4,1184.6,1361.9,1427.2
2026-06-21 00:40:55.350,1399.8,1171.7,1362.7,1428
2026-06-21 00:40:55.351,1399,1164.5,1364.3,1428.8
2026-06-21 00:40:55.352,1399.8,1161.2,1365.9,1428
2026-06-21 00:40:55.353,1401.4,1142.7,1366.7,1427.2
2026-06-21 00:40:55.354,1399.8,1142.7,1363.5,1428
2026-06-21 00:40:55.355,1403.8,1142.7,1366.7,1429.6
2026-06-21 00:40:55.356,1403,1142.7,1365.9,1428.8
2026-06-21 00:40:55.357,1401.4,1141.1,1366.7,1427.2
2026-06-21 00:40:55.358,1399.8,1137.1,1365.1,1427.2
2026-06-21 00:40:55.359,1403.8,1137.1,1364.3,1428
2026-06-21 00:40:55.360,1401.4,1135.5,1367.5,1428
2026-06-21 00:40:55.361,1402.2,1133,1366.7,1429.6
2026-06-21 00:40:55.362,1403.8,1133,1365.9,1429.6
2026-06-21 00:40:55.363,1406.2,1132.2,1366.7,1427.2
2026-06-21 00:40:55.364,1403,1135.5,1365.1,1428
2026-06-21 00:40:55.365,1404.6,1133.8,1366.7,1429.6
2026-06-21 00:40:55.366,1403,1137.1,1366.7,1427.2
2026-06-21 00:40:55.367,1403,1136.3,1366.7,1429.6
2026-06-21 00:40:55.368,1400.6,1141.1,1365.1,1430.4
2026-06-21 00:40:55.369,1403,1138.7,1367.5,1429.6
2026-06-21 00:40:55.370,1400.6,1137.1,1367.5,1431.2
2026-06-21 00:40:55.371,1398.2,1134.7,1366.7,1428.8
2026-06-21 00:40:55.372,1402.2,1136.3,1365.1,1432
2026-06-21 00:40:55.373,1402.2,1133,1365.9,1428.8
2026-06-21 00:40:55.374,1399.8,1133,1365.9,1430.4
2026-06-21 00:40:55.375,1399.8,1128.2,1366.7,1427.2
2026-06-21 00:40:55.376,1401.4,1129,1365.1,1427.2
2026-06-21 00:40:55.377,1405.4,1122.6,1369.2,1428.8
2026-06-21 00:40:55.378,1404.6,1125.8,1370,1429.6
2026-06-21 00:40:55.379,1406.2,1125.8,1365.9,1426.4
2026-06-21 00:40:55.380,1404.6,1133,1365.1,1425.6
2026-06-21 00:40:55.381,1403,1134.7,1366.7,1427.2
2026-06-21 00:40:55.382,1404.6,1138.7,1366.7,1427.2
2026-06-21 00:40:55.383,1400.6,1137.1,1367.5,1427.2
2026-06-21 00:40:55.384,1399,1136.3,1366.7,1428
2026-06-21 00:40:55.385,1397.4,1133,1366.7,1428.8
2026-06-21 00:40:55.386,1395.8,1133,1367.5,1428
2026-06-21 00:40:55.400,1394.9,1133,1368.4,1427.2
2026-06-21 00:40:55.401,1395.8,1131.4,1368.4,1428
2026-06-21 00:40:55.402,1396.6,1132.2,1368.4,1428.8
2026-06-21 00:40:55.403,1395.8,1126.6,1368.4,1427.2
2026-06-21 00:40:55.404,1403,1121,1366.7,1427.2
2026-06-21 00:40:55.405,1399.8,1129,1367.5,1429.6
2026-06-21 00:40:55.406,1404.6,1126.6,1370,1429.6
2026-06-21 00:40:55.407,1403.8,1129,1366.7,1427.2
2026-06-21 00:40:55.408,1407,1131.4,1366.7,1427.2
2026-06-21 00:40:55.409,1403.8,1133,1367.5,1427.2
2026-06-21 00:40:55.410,1406.2,1135.5,1367.5,1430.4
2026-06-21 00:40:55.411,1405.4,1142.7,1368.4,1428
2026-06-21 00:40:55.412,1404.6,1142.7,1361.9,1434.4
2026-06-21 00:40:55.413,1405.4,1142.7,1362.7,1428.8
2026-06-21 00:40:55.414,1403.8,1142.7,1361.1,1429.6
2026-06-21 00:40:55.415,1403,1142.7,1363.5,1429.6
2026-06-21 00:40:55.416,1407.8,1133,1367.5,1431.2
2026-06-21 00:40:55.417,1406.2,1133,1369.2,1434.4
2026-06-21 00:40:55.418,1407,1132.2,1370,1431.2
2026-06-21 00:40:55.419,1403,1128.2,1372.4,1429.6
2026-06-21 00:40:55.420,1397.4,1129,1370,1428.8
2026-06-21 00:40:55.421,1397.4,1133,1366.7,1428.8
2026-06-21 00:40:55.422,1395.8,1137.1,1362.7,1428
2026-06-21 00:40:55.423,1399.8,1137.9,1362.7,1428
2026-06-21 00:40:55.424,1398.2,1139.5,1357.1,1427.2
2026-06-21 00:40:55.425,1399,1134.7,1360.3,1427.2
2026-06-21 00:40:55.426,1399,1139.5,1359.5,1427.2
2026-06-21 00:40:55.427,1399.8,1138.7,1364.3,1427.2
2026-06-21 00:40:55.428,1403,1137.1,1364.3,1427.2
2026-06-21 00:40:55.429,1405.4,1136.3,1363.5,1427.2
2026-06-21 00:40:55.430,1404.6,1137.1,1364.3,1428.8
2026-06-21 00:40:55.431,1406.2,1137.1,1366.7,1428
2026-06-21 00:40:55.432,1403,1133.8,1366.7,1430.4
2026-06-21 00:40:55.433,1404.6,1133,1366.7,1428.8
2026-06-21 00:40:55.434,1404.6,1133.8,1366.7,1430.4
2026-06-21 00:40:55.435,1403,1136.3,1365.9,1429.6
2026-06-21 00:40:55.436,1403,1133.8,1365.1,1429.6
2026-06-21 00:40:55.437,1403.8,1133.8,1365.9,1429.6
2026-06-21 00:40:55.438,1403,1133,1365.1,1428.8
2026-06-21 00:40:55.439,1401.4,1130.6,1365.9,1428.8
2026-06-21 00:40:55.440,1403.8,1133,1368.4,1428.8
2026-06-21 00:40:55.441,1405.4,1134.7,1368.4,1431.2
2026-06-21 00:40:55.442,1406.2,1133,1365.9,1427.2
2026-06-21 00:40:55.443,1406.2,1133,1368.4,1426.4
2026-06-21 00:40:55.444,1403.8,1133.8,1367.5,1426.4
2026-06-21 00:40:55.445,1399,1133.8,1368.4,1428
2026-06-21 00:40:55.446,1403,1133.8,1366.7,1428.8
2026-06-21 00:40:55.447,1403,1137.1,1368.4,1428
2026-06-21 00:40:55.448,1401.4,1133.8,1368.4,1427.2
2026-06-21 00:40:55.449,1401.4,1137.1,1370,1428.8
2026-06-21 00:40:55.437,1394.9,1133,1368.4,1427.2
2026-06-21 00:40:55.438,1396.6,1129,1370,1428.8
2026-06-21 00:40:55.439,1396.6,1128.2,1368.4,1428
2026-06-21 00:40:55.440,1398.2,1132.2,1369.2,1428.8
2026-06-21 00:40:55.441,1397.4,1133,1370,1429.6
2026-06-21 00:40:55.442,1399,1126.6,1368.4,1431.2
2026-06-21 00:40:55.443,1401.4,1129.8,1365.1,1431.2
2026-06-21 00:40:55.444,1402.2,1129,1366.7,1431.2
2026-06-21 00:40:55.445,1399,1130.6,1365.9,1429.6
2026-06-21 00:40:55.446,1401.4,1130.6,1365.9,1429.6
2026-06-21 00:40:55.447,1402.2,1133,1368.4,1427.2
2026-06-21 00:40:55.448,1399.8,1129.8,1370,1428
2026-06-21 00:40:55.449,1399.8,1125.8,1366.7,1427.2
2026-06-21 00:40:55.450,1399,1126.6,1367.5,1427.2
2026-06-21 00:40:55.451,1399,1131.4,1362.7,1428.8
2026-06-21 00:40:55.452,1399.8,1132.2,1365.1,1430.4
2026-06-21 00:40:55.453,1399.8,1133,1366.7,1430.4
2026-06-21 00:40:55.454,1399.8,1128.2,1365.1,1431.2
2026-06-21 00:40:55.455,1403.8,1132.2,1366.7,1430.4
2026-06-21 00:40:55.456,1403.8,1132.2,1365.9,1428
2026-06-21 00:40:55.457,1403,1130.6,1365.9,1428.8
2026-06-21 00:40:55.458,1403.8,1131.4,1365.9,1427.2
2026-06-21 00:40:55.459,1405.4,1129,1366.7,1428.8
2026-06-21 00:40:55.460,1401.4,1125,1366.7,1428.8
2026-06-21 00:40:55.461,1403,1126.6,1367.5,1428.8
2026-06-21 00:40:55.462,1403,1122.6,1366.7,1429.6
2026-06-21 00:40:55.463,1403,1129,1366.7,1429.6
2026-06-21 00:40:55.464,1404.6,1129,1365.9,1429.6
2026-06-21 00:40:55.465,1403.8,1129,1365.9,1428.8
2026-06-21 00:40:55.466,1406.2,1129,1366.7,1429.6
2026-06-21 00:40:55.467,1405.4,1133,1366.7,1431.2
2026-06-21 00:40:55.468,1403,1129.8,1368.4,1428.8
2026-06-21 00:40:55.469,1406.2,1131.4,1367.5,1428
2026-06-21 00:40:55.470,1403.8,1130.6,1370.8,1429.6
2026-06-21 00:40:55.471,1404.6,1129,1370,1427.2
2026-06-21 00:40:55.472,1405.4,1132.2,1368.4,1427.2
2026-06-21 00:40:55.473,1407.8,1129,1368.4,1428
2026-06-21 00:40:55.474,1405.4,1130.6,1365.1,1427.2
2026-06-21 00:40:55.475,1405.4,1125.8,1365.9,1427.2
2026-06-21 00:40:55.476,1405.4,1128.2,1365.9,1432
2026-06-21 00:40:55.477,1404.6,1126.6,1369.2,1434.4
2026-06-21 00:40:55.478,1406.2,1129,1366.7,1430.4
2026-06-21 00:40:55.479,1406.2,1132.2,1367.5,1426.4
2026-06-21 00:40:55.480,1403,1129,1366.7,1422.3
2026-06-21 00:40:55.481,1403.8,1131.4,1366.7,1424
2026-06-21 00:40:55.482,1406.2,1133,1370,1427.2
2026-06-21 00:40:55.483,1406.2,1134.7,1366.7,1427.2
2026-06-21 00:40:55.484,1406.2,1132.2,1366.7,1426.4
2026-06-21 00:40:55.485,1406.2,1133,1367.5,1425.6
2026-06-21 00:40:55.486,1407.8,1133,1365.1,1428.8
2026-06-21 00:40:55.500,1403,1133,1370,1428.8
2026-06-21 00:40:55.501,1399.8,1133,1366.7,1427.2
2026-06-21 00:40:55.502,1401.4,1133,1366.7,1428.8
2026-06-21 00:40:55.503,1399.8,1133,1367.5,1428
2026-06-21 00:40:55.504,1403.8,1131.4,1366.7,1428
2026-06-21 00:40:55.505,1399,1129,1366.7,1427.2
2026-06-21 00:40:55.506,1399.8,1133,1370,1429.6
2026-06-21 00:40:55.507,1401.4,1133,1366.7,1428
2026-06-21 00:40:55.508,1399,1133,1370,1428.8
2026-06-21 00:40:55.509,1397.4,1133,1369.2,1428.8
2026-06-21 00:40:55.510,1395.8,1131.4,1367.5,1427.2
2026-06-21 00:40:55.511,1397.4,1125,1369.2,1427.2
2026-06-21 00:40:55.512,1399,1128.2,1362.7,1427.2
2026-06-21 00:40:55.513,1399,1129,1365.9,1427.2
2026-06-21 00:40:55.514,1397.4,1125.8,1362.7,1428.8
2026-06-21 00:40:55.515,1399.8,1129.8,1365.9,1428.8
2026-06-21 00:40:55.516,1402.2,1129,1365.9,1432.8
2026-06-21 00:40:55.517,1406.2,1129,1365.9,1430.4
2026-06-21 00:40:55.518,1405.4,1131.4,1366.7,1430.4
2026-06-21 00:40:55.519,1405.4,1133,1366.7,1429.6
2026-06-21 00:40:55.520,1404.6,1129,1366.7,1432
2026-06-21 00:40:55.521,1400.6,1125,1365.9,1429.6
2026-06-21 00:40:55.522,1403,1125.8,1366.7,1428.8
2026-06-21 00:40:55.523,1406.2,1128.2,1366.7,1428.8
2026-06-21 00:40:55.524,1403.8,1134.7,1366.7,1428.8
2026-06-21 00:40:55.525,1403,1129,1366.7,1427.2
2026-06-21 00:40:55.526,1397.4,1127.4,1367.5,1427.2
2026-06-21 00:40:55.527,1394.9,1125,1369.2,1426.4
2026-06-21 00:40:55.528,1396.6,1134.7,1368.4,1427.2
2026-06-21 00:40:55.529,1399,1136.3,1366.7,1427.2
2026-06-21 00:40:55.530,1395.8,1133,1366.7,1425.6
2026-06-21 00:40:55.531,1398.2,1133,1366.7,1427.2
2026-06-21 00:40:55.532,1399.8,1133,1368.4,1428
2026-06-21 00:40:55.533,1403,1133,1366.7,1430.4
2026-06-21 00:40:55.534,1405.4,1133,1370,1433.6
2026-06-21 00:40:55.535,1401.4,1133,1368.4,1435.2
2026-06-21 00:40:55.536,1403,1134.7,1370,1438.5
2026-06-21 00:40:55.537,1403,1137.1,1370,1436.8
2026-06-21 00:40:55.538,1403,1133,1371.6,1436.8
2026-06-21 00:40:55.539,1399,1132.2,1370.8,1434.4
2026-06-21 00:40:55.540,1402.2,1133,1366.7,1431.2
2026-06-21 00:40:55.541,1399,1129.8,1366.7,1434.4
2026-06-21 00:40:55.542,1399,1130.6,1365.9,1427.2
2026-06-21 00:40:55.543,1401.4,1130.6,1369.2,1417.5
2026-06-21 00:40:55.544,1406.2,1131.4,1365.9,1419.9
2026-06-21 00:40:55.545,1406.2,1131.4,1366.7,1426.4
2026-06-21 00:40:55.546,1406.2,1133,1365.9,1424
2026-06-21 00:40:55.547,1406.2,1133,1367.5,1424
2026-06-21 00:40:55.548,1406.2,1132.2,1366.7,1426.4
2026-06-21 00:40:55.549,1404.6,1133,1366.7,1427.2
2026-06-21 00:40:55.538,1403,1133,1367.5,1428.8
2026-06-21 00:40:55.539,1394.9,1134.7,1367.5,1427.2
2026-06-21 00:40:55.540,1397.4,1134.7,1366.7,1427.2
2026-06-21 00:40:55.541,1394.9,1136.3,1367.5,1427.2
2026-06-21 00:40:55.542,1394.9,1139.5,1366.7,1427.2
2026-06-21 00:40:55.543,1399,1142.7,1366.7,1428.8
2026-06-21 00:40:55.544,1398.2,1142.7,1370,1428
2026-06-21 00:40:55.545,1397.4,1142.7,1366.7,1427.2
2026-06-21 00:40:55.546,1397.4,1141.1,1367.5,1430.4
2026-06-21 00:40:55.547,1395.8,1139.5,1367.5,1430.4
2026-06-21 00:40:55.548,1398.2,1142.7,1366.7,1431.2
2026-06-21 00:40:55.549,1397.4,1142.7,1370,1427.2
2026-06-21 00:40:55.550,1398.2,1142.7,1370.8,1428
2026-06-21 00:40:55.551,1399,1142.7,1363.5,1428.8
2026-06-21 00:40:55.552,1403.8,1142.7,1367.5,1428.8
2026-06-21 00:40:55.553,1403,1142.7,1365.1,1430.4
2026-06-21 00:40:55.554,1405.4,1142.7,1365.9,1428.8
2026-06-21 00:40:55.555,1405.4,1142.7,1366.7,1430.4
2026-06-21 00:40:55.556,1403,1142.7,1365.9,1430.4
2026-06-21 00:40:55.557,1405.4,1142.7,1365.1,1432
2026-06-21 00:40:55.558,1401.4,1142.7,1366.7,1427.2
2026-06-21 00:40:55.559,1403,1141.9,1366.7,1427.2
2026-06-21 00:40:55.560,1403,1141.1,1365.1,1429.6
2026-06-21 00:40:55.561,1404.6,1142.7,1365.9,1428
2026-06-21 00:40:55.562,1404.6,1142.7,1366.7,1428
2026-06-21 00:40:55.563,1399.8,1142.7,1366.7,1430.4
2026-06-21 00:40:55.564,1401.4,1142.7,1366.7,1431.2
2026-06-21 00:40:55.565,1399,1142.7,1365.9,1430.4
2026-06-21 00:40:55.566,1402.2,1142.7,1365.9,1428
2026-06-21 00:40:55.567,1403.8,1142.7,1368.4,1427.2
2026-06-21 00:40:55.568,1403,1140.3,1366.7,1427.2
2026-06-21 00:40:55.569,1403,1142.7,1367.5,1430.4
2026-06-21 00:40:55.570,1403.8,1138.7,1366.7,1429.6
2026-06-21 00:40:55.571,1402.2,1141.1,1363.5,1428
2026-06-21 00:40:55.572,1403.8,1140.3,1365.9,1430.4
2026-06-21 00:40:55.573,1403,1140.3,1365.9,1427.2
2026-06-21 00:40:55.574,1403,1141.1,1367.5,1430.4
2026-06-21 00:40:55.575,1403,1137.1,1368.4,1427.2
2026-06-21 00:40:55.576,1402.2,1133.8,1366.7,1428.8
2026-06-21 00:40:55.577,1399.8,1133.8,1368.4,1429.6
2026-06-21 00:40:55.578,1403,1136.3,1367.5,1428
2026-06-21 00:40:55.579,1402.2,1131.4,1366.7,1430.4
2026-06-21 00:40:55.580,1403.8,1133,1366.7,1427.2
2026-06-21 00:40:55.581,1406.2,1129,1366.7,1424.8
2026-06-21 00:40:55.582,1405.4,1132.2,1368.4,1427.2
2026-06-21 00:40:55.583,1403.8,1133,1368.4,1427.2
2026-06-21 00:40:55.584,1403.8,1133,1369.2,1428.8
2026-06-21 00:40:55.585,1403,1131.4,1368.4,1428
2026-06-21 00:40:55.586,1405.4,1133,1366.7,1428
2026-06-21 00:40:55.587,1403,1130.6,1366.7,1429.6
2026-06-21 00:40:55.599,1404.6,1130.6,1366.7,1429.6
2026-06-21 00:40:55.600,1394.9,1129,1366.7,1429.6
2026-06-21 00:40:55.601,1394.9,1128.2,1365.9,1427.2
2026-06-21 00:40:55.602,1394.9,1129,1365.9,1428
2026-06-21 00:40:55.603,1394.9,1129.8,1370.8,1427.2
2026-06-21 00:40:55.604,1394.9,1133,1370,1429.6
2026-06-21 00:40:55.605,1399.8,1130.6,1367.5,1429.6
2026-06-21 00:40:55.606,1397.4,1133,1369.2,1427.2
2026-06-21 00:40:55.607,1401.4,1134.7,1367.5,1428
2026-06-21 00:40:55.608,1400.6,1136.3,1366.7,1427.2
2026-06-21 00:40:55.609,1402.2,1134.7,1368.4,1427.2
2026-06-21 00:40:55.610,1406.2,1136.3,1366.7,1427.2
2026-06-21 00:40:55.611,1405.4,1133,1364.3,1426.4
2026-06-21 00:40:55.612,1405.4,1131.4,1362.7,1428
2026-06-21 00:40:55.613,1405.4,1133,1364.3,1428.8
2026-06-21 00:40:55.614,1405.4,1131.4,1364.3,1427.2
2026-06-21 00:40:55.615,1402.2,1129,1366.7,1429.6
2026-06-21 00:40:55.616,1403,1125.8,1365.9,1428.8
2026-06-21 00:40:55.617,1403,1125,1366.7,1429.6
2026-06-21 00:40:55.618,1399.8,1126.6,1366.7,1430.4
2026-06-21 00:40:55.619,1402.2,1129,1366.7,1431.2
2026-06-21 00:40:55.620,1403.8,1128.2,1364.3,1430.4
2026-06-21 00:40:55.621,1401.4,1126.6,1366.7,1429.6
2026-06-21 00:40:55.622,1406.2,1123.4,1366.7,1428.8
2026-06-21 00:40:55.623,1403.8,1129,1368.4,1429.6
2026-06-21 00:40:55.624,1402.2,1125,1364.3,1430.4
2026-06-21 00:40:55.625,1406.2,1126.6,1367.5,1429.6
2026-06-21 00:40:55.626,1403,1129,1370.8,1428
2026-06-21 00:40:55.627,1403.8,1131.4,1370,1429.6
2026-06-21 00:40:55.628,1401.4,1132.2,1366.7,1429.6
2026-06-21 00:40:55.629,1406.2,1130.6,1366.7,1429.6
2026-06-21 00:40:55.630,1405.4,1130.6,1366.7,1427.2
2026-06-21 00:40:55.631,1403,1133,1366.7,1428.8
2026-06-21 00:40:55.632,1406.2,1133,1366.7,1428
2026-06-21 00:40:55.633,1407,1133,1369.2,1426.4
2026-06-21 00:40:55.634,1405.4,1133,1368.4,1427.2
2026-06-21 00:40:55.635,1406.2,1132.2,1366.7,1428
2026-06-21 00:40:55.636,1407.8,1132.2,1370,1428
2026-06-21 00:40:55.637,1408.6,1133,1368.4,1431.2
2026-06-21 00:40:55.638,1408.6,1133,1370,1428.8
2026-06-21 00:40:55.639,1407,1133,1366.7,1430.4
2026-06-21 00:40:55.640,1403.8,1133,1368.4,1427.2
2026-06-21 00:40:55.641,1403,1133,1367.5,1427.2
2026-06-21 00:40:55.642,1401.4,1123.4,1365.9,1424
2026-06-21 00:40:55.643,1399.8,1128.2,1365.1,1424.8
2026-06-21 00:40:55.644,1399.8,1129,1368.4,1427.2
2026-06-21 00:40:55.645,1399,1129.8,1369.2,1427.2
2026-06-21 00:40:55.646,1400.6,1126.6,1368.4,1427.2
2026-06-21 00:40:55.647,1403,1124.2,1367.5,1426.4
2026-06-21 00:40:55.648,1403,1128.2,1368.4,1427.2
2026-06-21 00:40:55.639,1399,1125.8,1367.5,1427.2
2026-06-21 00:40:55.640,1399.8,1133,1370,1430.4
2026-06-21 00:40:55.641,1399,1133,1366.7,1429.6
2026-06-21 00:40:55.642,1403,1133,1368.4,1430.4
2026-06-21 00:40:55.643,1403.8,1137.9,1370,1429.6
2026-06-21 00:40:55.644,1399.8,1131.4,1370.8,1429.6
2026-06-21 00:40:55.645,1403,1132.2,1368.4,1430.4
2026-06-21 00:40:55.646,1403,1131.4,1365.1,1427.2
2026-06-21 00:40:55.647,1403.8,1129,1368.4,1429.6
2026-06-21 00:40:55.648,1405.4,1129,1366.7,1430.4
2026-06-21 00:40:55.649,1403.8,1131.4,1370.8,1428
2026-06-21 00:40:55.650,1404.6,1133,1366.7,1428.8
2026-06-21 00:40:55.651,1406.2,1133,1366.7,1430.4
2026-06-21 00:40:55.652,1401.4,1133,1364.3,1430.4
2026-06-21 00:40:55.653,1401.4,1131.4,1362.7,1431.2
2026-06-21 00:40:55.654,1399,1129.8,1362.7,1430.4
2026-06-21 00:40:55.655,1403.8,1127.4,1365.1,1427.2
2026-06-21 00:40:55.656,1399.8,1126.6,1366.7,1428
2026-06-21 00:40:55.657,1403,1129.8,1365.9,1428.8
2026-06-21 00:40:55.658,1403,1129,1366.7,1427.2
2026-06-21 00:40:55.659,1401.4,1130.6,1366.7,1430.4
2026-06-21 00:40:55.660,1404.6,1126.6,1366.7,1428
2026-06-21 00:40:55.661,1403,1130.6,1365.9,1428.8
2026-06-21 00:40:55.662,1406.2,1129,1368.4,1428
2026-06-21 00:40:55.663,1403.8,1127.4,1366.7,1431.2
2026-06-21 00:40:55.664,1403,1132.2,1367.5,1429.6
2026-06-21 00:40:55.665,1403.8,1129.8,1366.7,1428.8
2026-06-21 00:40:55.666,1403.8,1129.8,1369.2,1428
2026-06-21 00:40:55.667,1403.8,1133,1366.7,1432
2026-06-21 00:40:55.668,1403.8,1130.6,1366.7,1428.8
2026-06-21 00:40:55.669,1405.4,1129.8,1366.7,1429.6
2026-06-21 00:40:55.670,1404.6,1129,1367.5,1430.4
2026-06-21 00:40:55.671,1403,1133,1365.1,1427.2
2026-06-21 00:40:55.672,1403,1129,1366.7,1429.6
2026-06-21 00:40:55.673,1401.4,1133,1366.7,1429.6
2026-06-21 00:40:55.674,1404.6,1131.4,1366.7,1429.6
2026-06-21 00:40:55.675,1399.8,1132.2,1365.1,1429.6
2026-06-21 00:40:55.676,1402.2,1129,1367.5,1430.4
2026-06-21 00:40:55.677,1399,1128.2,1367.5,1428.8
2026-06-21 00:40:55.678,1399.8,1132.2,1366.7,1429.6
2026-06-21 00:40:55.679,1399.8,1133,1365.9,1428.8
2026-06-21 00:40:55.680,1402.2,1129,1369.2,1428.8
2026-06-21 00:40:55.681,1404.6,1131.4,1366.7,1427.2
2026-06-21 00:40:55.682,1403.8,1133,1368.4,1426.4
2026-06-21 00:40:55.683,1403.8,1129.8,1366.7,1427.2
2026-06-21 00:40:55.684,1407.8,1133,1369.2,1427.2
2026-06-21 00:40:55.685,1406.2,1130.6,1368.4,1426.4
2026-06-21 00:40:55.686,1404.6,1131.4,1365.9,1426.4
2026-06-21 00:40:55.687,1404.6,1126.6,1369.2,1425.6
2026-06-21 00:40:55.688,1403.8,1133.8,1367.5,1429.6
2026-06-21 00:40:55.699,1403.8,1133.8,1366.7,1428
2026-06-21 00:40:55.700,1399.8,1129,1367.5,1428
2026-06-21 00:40:55.701,1395.8,1133,1362.7,1429.6
2026-06-21 00:40:55.702,1396.6,1131.4,1367.5,1430.4
2026-06-21 00:40:55.703,1399,1126.6,1367.5,1428.8
2026-06-21 00:40:55.704,1399,1121.8,1366.7,1429.6
2026-06-21 00:40:55.705,1399.8,1123.4,1367.5,1430.4
2026-06-21 00:40:55.706,1399,1131.4,1368.4,1430.4
2026-06-21 00:40:55.707,1401.4,1132.2,1371.6,1431.2
2026-06-21 00:40:55.708,1399,1130.6,1368.4,1431.2
2026-06-21 00:40:55.709,1402.2,1131.4,1366.7,1431.2
2026-06-21 00:40:55.710,1399,1133,1366.7,1427.2
2026-06-21 00:40:55.711,1401.4,1130.6,1357.9,1427.2
2026-06-21 00:40:55.712,1399.8,1127.4,1364.3,1428
2026-06-21 00:40:55.713,1399.8,1128.2,1361.9,1429.6
2026-06-21 00:40:55.714,1399,1129,1362.7,1430.4
2026-06-21 00:40:55.715,1403,1129,1362.7,1429.6
2026-06-21 00:40:55.716,1399.8,1126.6,1366.7,1429.6
2026-06-21 00:40:55.717,1402.2,1129,1365.1,1429.6
2026-06-21 00:40:55.718,1403.8,1132.2,1365.9,1428
2026-06-21 00:40:55.719,1404.6,1131.4,1366.7,1431.2
2026-06-21 00:40:55.720,1402.2,1129,1365.9,1430.4
2026-06-21 00:40:55.721,1399,1126.6,1367.5,1428
2026-06-21 00:40:55.722,1399,1126.6,1366.7,1429.6
2026-06-21 00:40:55.723,1401.4,1126.6,1366.7,1427.2
2026-06-21 00:40:55.724,1399,1129,1366.7,1427.2
2026-06-21 00:40:55.725,1402.2,1130.6,1365.1,1429.6
2026-06-21 00:40:55.726,1402.2,1129,1365.9,1430.4
2026-06-21 00:40:55.727,1403,1133,1368.4,1427.2
2026-06-21 00:40:55.728,1399,1126.6,1362.7,1428
2026-06-21 00:40:55.729,1399.8,1122.6,1366.7,1429.6
2026-06-21 00:40:55.730,1403,1128.2,1365.1,1430.4
2026-06-21 00:40:55.731,1403.8,1129,1366.7,1431.2
2026-06-21 00:40:55.732,1405.4,1129,1370.8,1430.4
2026-06-21 00:40:55.733,1405.4,1130.6,1365.1,1428
2026-06-21 00:40:55.734,1405.4,1129,1366.7,1432
2026-06-21 00:40:55.735,1402.2,1133,1365.9,1433.6
2026-06-21 00:40:55.736,1403.8,1129,1367.5,1429.6
2026-06-21 00:40:55.737,1402.2,1125,1364.3,1428
2026-06-21 00:40:55.738,1403,1128.2,1362.7,1426.4
2026-06-21 00:40:55.739,1402.2,1126.6,1364.3,1429.6
2026-06-21 00:40:55.740,1403,1129,1365.9,1429.6
2026-06-21 00:40:55.741,1403,1129,1365.9,1427.2
2026-06-21 00:40:55.742,1405.4,1129,1368.4,1427.2
2026-06-21 00:40:55.743,1404.6,1130.6,1368.4,1427.2
2026-06-21 00:40:55.744,1403,1133,1367.5,1428.8
2026-06-21 00:40:55.745,1402.2,1133,1366.7,1427.2
2026-06-21 00:40:55.746,1403,1132.2,1366.7,1428
2026-06-21 00:40:55.747,1402.2,1133,1365.1,1428
2026-06-21 00:40:55.748,1401.4,1132.2,1368.4,1430.4
2026-06-21 00:40:55.739,1399.8,1129,1366.7,1428
2026-06-21 00:40:55.740,1396.6,1131.4,1367.5,1428.8
2026-06-21 00:40:55.741,1397.4,1133,1367.5,1428
2026-06-21 00:40:55.742,1399.8,1131.4,1365.9,1428.8
2026-06-21 00:40:55.743,1402.2,1133,1364.3,1428.8
2026-06-21 00:40:55.744,1399.8,1133,1365.9,1429.6
2026-06-21 00:40:55.745,1398.2,1129,1366.7,1428.8
2026-06-21 00:40:55.746,1399.8,1123.4,1366.7,1428
2026-06-21 00:40:55.747,1397.4,1127.4,1368.4,1427.2
2026-06-21 00:40:55.748,1398.2,1128.2,1365.9,1428.8
2026-06-21 00:40:55.749,1397.4,1130.6,1366.7,1428
2026-06-21 00:40:55.750,1399.8,1127.4,1366.7,1430.4
2026-06-21 00:40:55.751,1399.8,1130.6,1366.7,1429.6
2026-06-21 00:40:55.752,1402.2,1133,1360.3,1429.6
2026-06-21 00:40:55.753,1402.2,1128.2,1362.7,1428.8
2026-06-21 00:40:55.754,1403,1132.2,1362.7,1428.8
2026-06-21 00:40:55.755,1405.4,1129.8,1366.7,1431.2
2026-06-21 00:40:55.756,1404.6,1129,1364.3,1429.6
2026-06-21 00:40:55.757,1401.4,1129,1365.9,1430.4
2026-06-21 00:40:55.758,1401.4,1133,1365.1,1429.6
2026-06-21 00:40:55.759,1401.4,1132.2,1365.9,1428.8
2026-06-21 00:40:55.760,1403,1133,1366.7,1428.8
2026-06-21 00:40:55.761,1403,1128.2,1365.1,1427.2
2026-06-21 00:40:55.762,1403,1126.6,1365.1,1428
2026-06-21 00:40:55.763,1400.6,1125.8,1365.9,1428
2026-06-21 00:40:55.764,1402.2,1124.2,1365.9,1429.6
2026-06-21 00:40:55.765,1399,1125.8,1365.9,1427.2
2026-06-21 00:40:55.766,1403,1129,1366.7,1428.8
2026-06-21 00:40:55.767,1403.8,1129,1365.9,1428.8
2026-06-21 00:40:55.768,1401.4,1128.2,1366.7,1427.2
2026-06-21 00:40:55.769,1401.4,1130.6,1365.9,1429.6
2026-06-21 00:40:55.770,1405.4,1129,1366.7,1429.6
2026-06-21 00:40:55.771,1403.8,1125.8,1366.7,1433.6
2026-06-21 00:40:55.772,1403,1126.6,1366.7,1432
2026-06-21 00:40:55.773,1403,1126.6,1366.7,1430.4
2026-06-21 00:40:55.774,1403,1133,1368.4,1428.8
2026-06-21 00:40:55.775,1403,1132.2,1365.9,1429.6
2026-06-21 00:40:55.776,1405.4,1133,1365.9,1430.4
2026-06-21 00:40:55.777,1406.2,1130.6,1366.7,1430.4
2026-06-21 00:40:55.778,1399,1130.6,1366.7,1429.6
2026-06-21 00:40:55.779,1399.8,1133,1366.7,1428
2026-06-21 00:40:55.780,1399.8,1132.2,1366.7,1429.6
2026-06-21 00:40:55.781,1399.8,1133,1366.7,1425.6
2026-06-21 00:40:55.782,1404.6,1129,1367.5,1427.2
2026-06-21 00:40:55.783,1403,1131.4,1366.7,1427.2
2026-06-21 00:40:55.784,1407,1124.2,1368.4,1427.2
2026-06-21 00:40:55.785,1407.8,1129,1365.9,1427.2
2026-06-21 00:40:55.786,1403,1129,1366.7,1427.2
2026-06-21 00:40:55.787,1404.6,1129,1367.5,1427.2
2026-06-21 00:40:55.788,1403,1130.6,1366.7,1428
2026-06-21 00:40:55.800,1399.8,1129,1370,1428
2026-06-21 00:40:55.801,1399,1125,1366.7,1428.8
2026-06-21 00:40:55.802,1394.9,1129,1368.4,1428.8
2026-06-21 00:40:55.803,1394.9,1126.6,1368.4,1428.8
2026-06-21 00:40:55.804,1394.9,1132.2,1367.5,1428
2026-06-21 00:40:55.805,1394.9,1129,1368.4,1427.2
2026-06-21 00:40:55.806,1397.4,1132.2,1367.5,1426.4
2026-06-21 00:40:55.807,1396.6,1132.2,1366.7,1426.4
2026-06-21 00:40:55.808,1399,1131.4,1366.7,1427.2
2026-06-21 00:40:55.809,1399,1130.6,1367.5,1427.2
2026-06-21 00:40:55.810,1398.2,1133,1366.7,1427.2
2026-06-21 00:40:55.811,1399,1132.2,1366.7,1427.2
2026-06-21 00:40:55.812,1404.6,1131.4,1366.7,1430.4
2026-06-21 00:40:55.813,1402.2,1130.6,1366.7,1429.6
2026-06-21 00:40:55.814,1403,1124.2,1363.5,1432
2026-06-21 00:40:55.815,1399,1123.4,1362.7,1427.2
2026-06-21 00:40:55.816,1402.2,1125,1365.9,1429.6
2026-06-21 00:40:55.817,1403.8,1125.8,1363.5,1431.2
2026-06-21 00:40:55.818,1402.2,1125,1365.1,1430.4
2026-06-21 00:40:55.819,1401.4,1128.2,1365.9,1428.8
2026-06-21 00:40:55.820,1399.8,1130.6,1362.7,1430.4
2026-06-21 00:40:55.821,1403,1129,1368.4,1428.8
2026-06-21 00:40:55.822,1401.4,1129,1365.1,1428.8
2026-06-21 00:40:55.823,1400.6,1129.8,1368.4,1428.8
2026-06-21 00:40:55.824,1399,1126.6,1366.7,1428.8
2026-06-21 00:40:55.825,1397.4,1130.6,1366.7,1430.4
2026-06-21 00:40:55.826,1397.4,1130.6,1366.7,1429.6
2026-06-21 00:40:55.827,1396.6,1129,1366.7,1430.4
2026-06-21 00:40:55.828,1397.4,1129,1366.7,1427.2
2026-06-21 00:40:55.829,1399,1125.8,1365.1,1432
2026-06-21 00:40:55.830,1399,1128.2,1365.1,1430.4
2026-06-21 00:40:55.831,1397.4,1126.6,1368.4,1430.4
2026-06-21 00:40:55.832,1399.8,1129,1365.9,1428
2026-06-21 00:40:55.833,1399.8,1125.8,1365.9,1428
2026-06-21 00:40:55.834,1399.8,1131.4,1365.1,1428.8
2026-06-21 00:40:55.835,1403,1129,1367.5,1429.6
2026-06-21 00:40:55.836,1403,1130.6,1367.5,1427.2
2026-06-21 00:40:55.837,1406.2,1129.8,1366.7,1431.2
2026-06-21 00:40:55.838,1408.6,1130.6,1370,1428
2026-06-21 00:40:55.839,1410.3,1129,1368.4,1431.2
2026-06-21 00:40:55.840,1406.2,1129,1365.9,1429.6
2026-06-21 00:40:55.841,1402.2,1129,1366.7,1432
2026-06-21 00:40:55.842,1398.2,1129,1368.4,1428
2026-06-21 00:40:55.843,1399.8,1129,1368.4,1426.4
2026-06-21 00:40:55.844,1399.8,1129.8,1368.4,1426.4
2026-06-21 00:40:55.845,1402.2,1126.6,1367.5,1427.2
2026-06-21 00:40:55.846,1401.4,1125,1368.4,1427.2
2026-06-21 00:40:55.847,1403.8,1129,1368.4,1428
2026-06-21 00:40:55.848,1403.8,1129,1367.5,1429.6
2026-06-21 00:40:55.849,1401.4,1129.8,1366.7,1427.2
2026-06-21 00:40:55.840,1399.8,1126.6,1366.7,1427.2
2026-06-21 00:40:55.841,1397.4,1125.8,1367.5,1427.2
2026-06-21 00:40:55.842,1394.9,1133,1367.5,1426.4
2026-06-21 00:40:55.843,1394.9,1130.6,1366.7,1427.2
2026-06-21 00:40:55.844,1394.9,1133,1368.4,1428.8
2026-06-21 00:40:55.845,1394.9,1129,1366.7,1427.2
2026-06-21 00:40:55.846,1394.9,1132.2,1367.5,1430.4
2026-06-21 00:40:55.847,1395.8,1131.4,1366.7,1428.8
2026-06-21 00:40:55.848,1399,1130.6,1365.9,1429.6
2026-06-21 00:40:55.849,1399,1129,1366.7,1428.8
2026-06-21 00:40:55.850,1399,1128.2,1365.9,1427.2
2026-06-21 00:40:55.851,1399,1129.8,1366.7,1429.6
2026-06-21 00:40:55.852,1399,1129,1366.7,1427.2
2026-06-21 00:40:55.853,1402.2,1132.2,1365.1,1427.2
2026-06-21 00:40:55.854,1399,1129,1360.3,1429.6
2026-06-21 00:40:55.855,1403,1133,1362.7,1428.8
2026-06-21 00:40:55.856,1399.8,1130.6,1365.9,1428.8
2026-06-21 00:40:55.857,1402.2,1125.8,1366.7,1430.4
2026-06-21 00:40:55.858,1399.8,1124.2,1366.7,1434.4
2026-06-21 00:40:55.859,1399.8,1122.6,1365.9,1430.4
2026-06-21 00:40:55.860,1402.2,1125.8,1364.3,1428
2026-06-21 00:40:55.861,1399,1129,1366.7,1427.2
2026-06-21 00:40:55.862,1403.8,1129.8,1365.9,1429.6
2026-06-21 00:40:55.863,1399,1130.6,1366.7,1431.2
2026-06-21 00:40:55.864,1401.4,1129,1365.9,1428
2026-06-21 00:40:55.865,1399.8,1128.2,1365.9,1427.2
2026-06-21 00:40:55.866,1403,1125.8,1365.9,1431.2
2026-06-21 00:40:55.867,1399,1129,1369.2,1431.2
2026-06-21 00:40:55.868,1403,1126.6,1366.7,1429.6
2026-06-21 00:40:55.869,1403,1129,1366.7,1429.6
2026-06-21 00:40:55.870,1402.2,1125,1365.1,1430.4
2026-06-21 00:40:55.871,1402.2,1128.2,1366.7,1429.6
2026-06-21 00:40:55.872,1401.4,1129,1368.4,1428
2026-06-21 00:40:55.873,1397.4,1125.8,1367.5,1428
2026-06-21 00:40:55.874,1401.4,1129,1364.3,1428.8
2026-06-21 00:40:55.875,1399.8,1129,1364.3,1430.4
2026-06-21 00:40:55.876,1404.6,1128.2,1366.7,1428.8
2026-06-21 00:40:55.877,1403,1130.6,1366.7,1429.6
2026-06-21 00:40:55.878,1401.4,1130.6,1366.7,1428
2026-06-21 00:40:55.879,1403,1132.2,1366.7,1431.2
2026-06-21 00:40:55.880,1402.2,1130.6,1367.5,1429.6
2026-06-21 00:40:55.881,1403.8,1132.2,1369.2,1429.6
2026-06-21 00:40:55.882,1402.2,1132.2,1367.5,1427.2
2026-06-21 00:40:55.883,1404.6,1131.4,1370.8,1426.4
2026-06-21 00:40:55.884,1403,1129,1366.7,1427.2
2026-06-21 00:40:55.885,1402.2,1125,1368.4,1428
2026-06-21 00:40:55.886,1403,1129,1366.7,1426.4
2026-06-21 00:40:55.887,1399.8,1128.2,1366.7,1428
2026-06-21 00:40:55.888,1403.8,1130.6,1366.7,1429.6
2026-06-21 00:40:55.889,1401.4,1131.4,1365.9,1427.2
2026-06-21 00:40:55.900,1402.2,1131.4,1366.7,1427.2
2026-06-21 00:40:55.901,1399,1129,1368.4,1426.4
2026-06-21 00:40:55.902,1399,1131.4,1366.7,1426.4
2026-06-21 00:40:55.903,1397.4,1125.8,1366.7,1427.2
2026-06-21 00:40:55.904,1399.8,1130.6,1366.7,1426.4
2026-06-21 00:40:55.905,1397.4,1127.4,1366.7,1427.2
2026-06-21 00:40:55.906,1399.8,1128.2,1366.7,1428
2026-06-21 00:40:55.907,1399,1129,1365.1,1429.6
2026-06-21 00:40:55.908,1397.4,1130.6,1366.7,1428
2026-06-21 00:40:55.909,1399,1130.6,1368.4,1428.8
2026-06-21 00:40:55.910,1398.2,1126.6,1366.7,1431.2
2026-06-21 00:40:55.911,1398.2,1126.6,1367.5,1428
2026-06-21 00:40:55.912,1399,1125,1365.9,1428
2026-06-21 00:40:55.913,1401.4,1125.8,1362.7,1431.2
2026-06-21 00:40:55.914,1399,1126.6,1363.5,1430.4
2026-06-21 00:40:55.915,1403.8,1125.8,1365.9,1433.6
2026-06-21 00:40:55.916,1403.8,1129,1365.1,1431.2
2026-06-21 00:40:55.917,1400.6,1126.6,1366.7,1428.8
2026-06-21 00:40:55.918,1402.2,1125.8,1365.1,1430.4
2026-06-21 00:40:55.919,1402.2,1125,1365.9,1429.6
2026-06-21 00:40:55.920,1402.2,1125.8,1366.7,1430.4
2026-06-21 00:40:55.921,1404.6,1129,1365.1,1430.4
2026-06-21 00:40:55.922,1403,1128.2,1366.7,1428
2026-06-21 00:40:55.923,1403,1125.8,1367.5,1428
2026-06-21 00:40:55.924,1399.8,1125,1366.7,1430.4
2026-06-21 00:40:55.925,1402.2,1125,1366.7,1428.8
2026-06-21 00:40:55.926,1403,1128.2,1365.9,1427.2
2026-06-21 00:40:55.927,1399,1125,1366.7,1428
2026-06-21 00:40:55.928,1399.8,1126.6,1366.7,1428
2026-06-21 00:40:55.929,1399.8,1125,1365.9,1429.6
2026-06-21 00:40:55.930,1399,1128.2,1365.9,1427.2
2026-06-21 00:40:55.931,1399.8,1128.2,1366.7,1427.2
2026-06-21 00:40:55.932,1401.4,1125.8,1365.1,1427.2
2026-06-21 00:40:55.933,1399,1129.8,1366.7,1427.2
2026-06-21 00:40:55.934,1399,1125.8,1366.7,1428
2026-06-21 00:40:55.935,1401.4,1130.6,1362.7,1429.6
2026-06-21 00:40:55.936,1399.8,1129,1367.5,1430.4
2026-06-21 00:40:55.937,1401.4,1125.8,1366.7,1428
2026-06-21 00:40:55.938,1399,1128.2,1366.7,1428.8
2026-06-21 00:40:55.939,1399.8,1125,1365.9,1430.4
2026-06-21 00:40:55.940,1402.2,1126.6,1366.7,1432
2026-06-21 00:40:55.941,1399,1125.8,1366.7,1430.4
2026-06-21 00:40:55.942,1403,1126.6,1366.7,1427.2
2026-06-21 00:40:55.943,1399.8,1124.2,1365.9,1427.2
2026-06-21 00:40:55.944,1399,1129,1365.9,1426.4
2026-06-21 00:40:55.945,1399,1125,1366.7,1427.2
2026-06-21 00:40:55.946,1403,1125.8,1366.7,1428.8
2026-06-21 00:40:55.947,1399.8,1125,1366.7,1427.2
2026-06-21 00:40:55.948,1402.2,1124.2,1367.5,1426.4
2026-06-21 00:40:55.949,1401.4,1125.8,1366.7,1428.8
2026-06-21 00:40:55.938,1403,1125.8,1370,1427.2
2026-06-21 00:40:55.939,1395.8,1122.6,1367.5,1428
2026-06-21 00:40:55.940,1394.9,1125,1367.5,1430.4
2026-06-21 00:40:55.941,1394.9,1124.2,1366.7,1428.8
2026-06-21 00:40:55.942,1397.4,1123.4,1365.1,1428.8
2026-06-21 00:40:55.943,1395.8,1125,1365.1,1428.8
2026-06-21 00:40:55.944,1397.4,1123.4,1365.9,1428
2026-06-21 00:40:55.945,1395.8,1123.4,1366.7,1426.4
2026-06-21 00:40:55.946,1396.6,1124.2,1365.1,1427.2
2026-06-21 00:40:55.947,1399.8,1122.6,1363.5,1428.8
2026-06-21 00:40:55.948,1399,1121,1366.7,1430.4
2026-06-21 00:40:55.949,1399,1121.8,1366.7,1427.2
2026-06-21 00:40:55.950,1399,1126.6,1365.9,1428
2026-06-21 00:40:55.951,1399,1124.2,1362.7,1427.2
2026-06-21 00:40:55.952,1399,1121.8,1361.9,1429.6
2026-06-21 00:40:55.953,1397.4,1124.2,1362.7,1432.8
2026-06-21 00:40:55.954,1399,1121,1365.9,1429.6
2026-06-21 00:40:55.955,1401.4,1117.7,1365.9,1428.8
2026-06-21 00:40:55.956,1399.8,1118.5,1365.9,1429.6
2026-06-21 00:40:55.957,1399.8,1121,1366.7,1430.4
2026-06-21 00:40:55.958,1401.4,1113.7,1365.9,1429.6
2026-06-21 00:40:55.959,1399,1118.5,1370,1429.6
2026-06-21 00:40:55.960,1402.2,1122.6,1366.7,1431.2
2026-06-21 00:40:55.961,1403,1122.6,1362.7,1431.2
2026-06-21 00:40:55.962,1404.6,1121,1365.1,1430.4
2026-06-21 00:40:55.963,1399,1121.8,1366.7,1428.8
2026-06-21 00:40:55.964,1399,1124.2,1366.7,1429.6
2026-06-21 00:40:55.965,1402.2,1123.4,1364.3,1428
2026-06-21 00:40:55.966,1401.4,1123.4,1365.1,1427.2
2026-06-21 00:40:55.967,1401.4,1124.2,1365.9,1429.6
2026-06-21 00:40:55.968,1401.4,1125,1367.5,1429.6
2026-06-21 00:40:55.969,1406.2,1125,1365.9,1430.4
2026-06-21 00:40:55.970,1401.4,1125,1366.7,1430.4
2026-06-21 00:40:55.971,1405.4,1125,1366.7,1430.4
2026-06-21 00:40:55.972,1403.8,1123.4,1365.9,1429.6
2026-06-21 00:40:55.973,1403,1129,1365.9,1428.8
2026-06-21 00:40:55.974,1402.2,1126.6,1366.7,1429.6
2026-06-21 00:40:55.975,1401.4,1125,1365.9,1428
2026-06-21 00:40:55.976,1403,1125,1366.7,1428.8
2026-06-21 00:40:55.977,1399,1125,1366.7,1431.2
2026-06-21 00:40:55.978,1401.4,1128.2,1366.7,1431.2
2026-06-21 00:40:55.979,1402.2,1126.6,1366.7,1428.8
2026-06-21 00:40:55.980,1397.4,1125.8,1366.7,1424.8
2026-06-21 00:40:55.981,1401.4,1126.6,1366.7,1426.4
2026-06-21 00:40:55.982,1403,1126.6,1367.5,1425.6
2026-06-21 00:40:55.983,1402.2,1129,1368.4,1427.2
2026-06-21 00:40:55.984,1401.4,1126.6,1366.7,1428
2026-06-21 00:40:55.985,1399,1126.6,1368.4,1427.2
2026-06-21 00:40:55.986,1399.8,1127.4,1367.5,1427.2
2026-06-21 00:40:55.987,1401.4,1124.2,1367.5,1429.6
2026-06-21 00:40:56.000,1399,1129,1366.7,1427.2
2026-06-21 00:40:56.001,1395.8,1128.2,1365.1,1427.2
2026-06-21 00:40:56.002,1394.9,1128.2,1366.7,1428
2026-06-21 00:40:56.003,1396.6,1129,1366.7,1427.2
2026-06-21 00:40:56.004,1397.4,1129,1366.7,1427.2
2026-06-21 00:40:56.005,1397.4,1129,1366.7,1428
2026-06-21 00:40:56.006,1399,1129,1367.5,1428
2026-06-21 00:40:56.007,1399,1126.6,1365.1,1427.2
2026-06-21 00:40:56.008,1399,1130.6,1365.9,1429.6
2026-06-21 00:40:56.009,1399,1129,1366.7,1428
2026-06-21 00:40:56.010,1398.2,1129,1368.4,1427.2
2026-06-21 00:40:56.011,1402.2,1131.4,1367.5,1427.2
2026-06-21 00:40:56.012,1399.8,1132.2,1362.7,1428.8
2026-06-21 00:40:56.013,1402.2,1132.2,1363.5,1427.2
2026-06-21 00:40:56.014,1399.8,1133,1364.3,1428.8
2026-06-21 00:40:56.015,1402.2,1128.2,1362.7,1429.6
2026-06-21 00:40:56.016,1399,1125,1365.9,1429.6
2026-06-21 00:40:56.017,1399.8,1125,1366.7,1430.4
2026-06-21 00:40:56.018,1399.8,1128.2,1366.7,1430.4
2026-06-21 00:40:56.019,1399.8,1125,1366.7,1428
2026-06-21 00:40:56.020,1401.4,1128.2,1366.7,1427.2
2026-06-21 00:40:56.021,1401.4,1126.6,1368.4,1428.8
2026-06-21 00:40:56.022,1399,1126.6,1362.7,1428
2026-06-21 00:40:56.023,1401.4,1128.2,1366.7,1429.6
2026-06-21 00:40:56.024,1399.8,1129,1362.7,1431.2
2026-06-21 00:40:56.025,1403.8,1126.6,1366.7,1428
2026-06-21 00:40:56.026,1402.2,1126.6,1364.3,1431.2
2026-06-21 00:40:56.027,1399.8,1129,1365.9,1430.4
2026-06-21 00:40:56.028,1403,1126.6,1365.9,1429.6
2026-06-21 00:40:56.029,1402.2,1126.6,1368.4,1430.4
2026-06-21 00:40:56.030,1401.4,1128.2,1366.7,1430.4
2026-06-21 00:40:56.031,1399,1129,1366.7,1431.2
2026-06-21 00:40:56.032,1399.8,1129,1365.9,1434.4
2026-06-21 00:40:56.033,1402.2,1131.4,1367.5,1430.4
2026-06-21 00:40:56.034,1399,1129,1366.7,1432
2026-06-21 00:40:56.035,1399.8,1130.6,1366.7,1430.4
2026-06-21 00:40:56.036,1399.8,1129.8,1365.9,1429.6
2026-06-21 00:40:56.037,1399,1125,1365.9,1429.6
2026-06-21 00:40:56.038,1403,1130.6,1365.1,1428
2026-06-21 00:40:56.039,1399,1132.2,1364.3,1428.8
2026-06-21 00:40:56.040,1400.6,1126.6,1366.7,1427.2
2026-06-21 00:40:56.041,1399.8,1129,1366.7,1429.6
2026-06-21 00:40:56.042,1404.6,1130.6,1368.4,1426.4
2026-06-21 00:40:56.043,1403,1130.6,1365.9,1426.4
2026-06-21 00:40:56.044,1399,1131.4,1365.9,1429.6
2026-06-21 00:40:56.045,1403.8,1129,1367.5,1427.2
2026-06-21 00:40:56.046,1402.2,1130.6,1368.4,1427.2
2026-06-21 00:40:56.047,1401.4,1129.8,1365.9,1428.8
2026-06-21 00:40:56.048,1401.4,1130.6,1366.7,1428.8
2026-06-21 00:40:56.049,1402.2,1129.8,1366.7,1427.2
2026-06-21 00:40:56.038,1399,1129,1366.7,1427.2
2026-06-21 00:40:56.039,1394.9,1129,1367.5,1429.6
2026-06-21 00:40:56.040,1394.9,1129,1366.7,1428
2026-06-21 00:40:56.041,1394.9,1129,1366.7,1429.6
2026-06-21 00:40:56.042,1394.9,1128.2,1366.7,1430.4
2026-06-21 00:40:56.043,1395.8,1129,1366.7,1428
2026-06-21 00:40:56.044,1394.9,1126.6,1365.9,1428
2026-06-21 00:40:56.045,1395.8,1130.6,1366.7,1428.8
2026-06-21 00:40:56.046,1394.9,1126.6,1366.7,1430.4
2026-06-21 00:40:56.047,1398.2,1125.8,1366.7,1429.6
2026-06-21 00:40:56.048,1394.9,1129,1366.7,1428
2026-06-21 00:40:56.049,1395.8,1129.8,1366.7,1428
2026-06-21 00:40:56.050,1399,1129,1361.9,1429.6
2026-06-21 00:40:56.051,1401.4,1131.4,1362.7,1428.8
2026-06-21 00:40:56.052,1399,1130.6,1365.1,1428
2026-06-21 00:40:56.053,1404.6,1132.2,1366.7,1428.8
2026-06-21 00:40:56.054,1403,1126.6,1365.9,1431.2
2026-06-21 00:40:56.055,1399,1126.6,1364.3,1430.4
2026-06-21 00:40:56.056,1402.2,1130.6,1366.7,1428.8
2026-06-21 00:40:56.057,1402.2,1130.6,1365.9,1427.2
2026-06-21 00:40:56.058,1401.4,1128.2,1366.7,1427.2
2026-06-21 00:40:56.059,1404.6,1129,1366.7,1431.2
2026-06-21 00:40:56.060,1399.8,1130.6,1364.3,1430.4
2026-06-21 00:40:56.061,1403.8,1129,1365.9,1430.4
2026-06-21 00:40:56.062,1399,1131.4,1364.3,1432
2026-06-21 00:40:56.063,1404.6,1131.4,1366.7,1429.6
2026-06-21 00:40:56.064,1403,1133,1365.1,1429.6
2026-06-21 00:40:56.065,1399,1131.4,1366.7,1428
2026-06-21 00:40:56.066,1399.8,1129,1365.9,1427.2
2026-06-21 00:40:56.067,1402.2,1129,1365.9,1430.4
2026-06-21 00:40:56.068,1403,1131.4,1366.7,1432
2026-06-21 00:40:56.069,1399.8,1130.6,1365.1,1431.2
2026-06-21 00:40:56.070,1399.8,1133,1364.3,1430.4
2026-06-21 00:40:56.071,1399.8,1133,1366.7,1430.4
2026-06-21 00:40:56.072,1399.8,1133,1365.9,1429.6
2026-06-21 00:40:56.073,1403,1133,1365.1,1431.2
2026-06-21 00:40:56.074,1402.2,1129,1366.7,1429.6
2026-06-21 00:40:56.075,1402.2,1133,1366.7,1429.6
2026-06-21 00:40:56.076,1399.8,1133,1365.9,1429.6
2026-06-21 00:40:56.077,1399.8,1133,1366.7,1429.6
2026-06-21 00:40:56.078,1402.2,1133,1366.7,1428.8
2026-06-21 00:40:56.079,1399.8,1133,1366.7,1431.2
2026-06-21 00:40:56.080,1403,1132.2,1366.7,1425.6
2026-06-21 00:40:56.081,1401.4,1135.5,1366.7,1427.2
2026-06-21 00:40:56.082,1403,1133,1366.7,1427.2
2026-06-21 00:40:56.083,1402.2,1133,1366.7,1428
2026-06-21 00:40:56.084,1401.4,1133,1365.9,1427.2
2026-06-21 00:40:56.085,1405.4,1133,1368.4,1427.2
2026-06-21 00:40:56.086,1403,1137.1,1367.5,1428
2026-06-21 00:40:56.087,1403,1133.8,1366.7,1429.6
2026-06-21 00:40:56.099,1403,1133,1366.7,1428
2026-06-21 00:40:56.100,1399.8,1133,1370,1428.8
2026-06-21 00:40:56.101,1394.9,1136.3,1370,1430.4
2026-06-21 00:40:56.102,1397.4,1137.1,1365.1,1428.8
2026-06-21 00:40:56.103,1395.8,1134.7,1366.7,1427.2
2026-06-21 00:40:56.104,1395.8,1137.1,1366.7,1429.6
2026-06-21 00:40:56.105,1394.9,1137.1,1369.2,1429.6
2026-06-21 00:40:56.106,1395.8,1141.1,1366.7,1429.6
2026-06-21 00:40:56.107,1394.9,1138.7,1368.4,1430.4
2026-06-21 00:40:56.108,1397.4,1137.1,1365.9,1428.8
2026-06-21 00:40:56.109,1397.4,1134.7,1367.5,1429.6
2026-06-21 00:40:56.110,1396.6,1137.1,1370,1428.8
2026-06-21 00:40:56.111,1395.8,1135.5,1363.5,1427.2
2026-06-21 00:40:56.112,1403,1137.1,1362.7,1429.6
2026-06-21 00:40:56.113,1399,1133,1364.3,1430.4
2026-06-21 00:40:56.114,1399.8,1133.8,1365.1,1430.4
2026-06-21 00:40:56.115,1402.2,1134.7,1365.1,1429.6
2026-06-21 00:40:56.116,1400.6,1133,1366.7,1428.8
2026-06-21 00:40:56.117,1399.8,1135.5,1365.9,1428.8
2026-06-21 00:40:56.118,1402.2,1135.5,1364.3,1430.4
2026-06-21 00:40:56.119,1403.8,1135.5,1366.7,1432
2026-06-21 00:40:56.120,1403,1138.7,1365.9,1429.6
2026-06-21 00:40:56.121,1402.2,1141.1,1364.3,1430.4
2026-06-21 00:40:56.122,1399.8,1141.9,1365.1,1428.8
2026-06-21 00:40:56.123,1399,1141.1,1363.5,1429.6
2026-06-21 00:40:56.124,1399.8,1136.3,1365.1,1429.6
2026-06-21 00:40:56.125,1400.6,1139.5,1364.3,1431.2
2026-06-21 00:40:56.126,1402.2,1140.3,1362.7,1428
2026-06-21 00:40:56.127,1399.8,1138.7,1369.2,1427.2
2026-06-21 00:40:56.128,1399.8,1140.3,1365.9,1428.8
2026-06-21 00:40:56.129,1402.2,1141.1,1367.5,1428.8
2026-06-21 00:40:56.130,1401.4,1138.7,1367.5,1427.2
2026-06-21 00:40:56.131,1401.4,1141.9,1366.7,1428
2026-06-21 00:40:56.132,1401.4,1139.5,1366.7,1428.8
2026-06-21 00:40:56.133,1402.2,1134.7,1365.9,1430.4
2026-06-21 00:40:56.134,1402.2,1136.3,1367.5,1430.4
2026-06-21 00:40:56.135,1402.2,1133,1366.7,1429.6
2026-06-21 00:40:56.136,1403,1134.7,1366.7,1429.6
2026-06-21 00:40:56.137,1402.2,1133,1366.7,1429.6
2026-06-21 00:40:56.138,1401.4,1133,1363.5,1430.4
2026-06-21 00:40:56.139,1399.8,1133,1365.1,1431.2
2026-06-21 00:40:56.140,1403,1133,1365.9,1428.8
2026-06-21 00:40:56.141,1401.4,1131.4,1362.7,1427.2
2026-06-21 00:40:56.142,1402.2,1131.4,1366.7,1426.4
2026-06-21 00:40:56.143,1405.4,1133,1366.7,1427.2
2026-06-21 00:40:56.144,1403,1133,1367.5,1427.2
2026-06-21 00:40:56.145,1402.2,1130.6,1367.5,1427.2
2026-06-21 00:40:56.146,1402.2,1129,1365.9,1429.6
2026-06-21 00:40:56.147,1402.2,1133.8,1366.7,1428.8
2026-06-21 00:40:56.148,1402.2,1133,1366.7,1429.6
2026-06-21 00:40:56.138,1397.4,1134.7,1366.7,1428.8
2026-06-21 00:40:56.139,1397.4,1132.2,1366.7,1428
2026-06-21 00:40:56.140,1399,1133,1366.7,1427.2
2026-06-21 00:40:56.141,1399,1133,1365.9,1428.8
2026-06-21 00:40:56.142,1395.8,1133,1365.1,1428.8
2026-06-21 00:40:56.143,1396.6,1133,1365.9,1428
2026-06-21 00:40:56.144,1397.4,1134.7,1365.9,1428.8
2026-06-21 00:40:56.145,1399.8,1134.7,1365.9,1427.2
2026-06-21 00:40:56.146,1399,1133,1365.1,1428
2026-06-21 00:40:56.147,1399,1137.1,1367.5,1428
2026-06-21 00:40:56.148,1398.2,1133,1367.5,1428
2026-06-21 00:40:56.149,1399,1137.1,1370,1429.6
2026-06-21 00:40:56.150,1399.8,1135.5,1362.7,1428.8
2026-06-21 00:40:56.151,1402.2,1139.5,1361.9,1428.8
2026-06-21 00:40:56.152,1401.4,1137.1,1363.5,1428
2026-06-21 00:40:56.153,1402.2,1133,1363.5,1432
2026-06-21 00:40:56.154,1401.4,1133,1365.1,1429.6
2026-06-21 00:40:56.155,1403,1133,1365.1,1429.6
2026-06-21 00:40:56.156,1403,1137.1,1365.9,1430.4
2026-06-21 00:40:56.157,1403,1139.5,1364.3,1428.8
2026-06-21 00:40:56.158,1403,1142.7,1366.7,1431.2
2026-06-21 00:40:56.159,1399.8,1142.7,1362.7,1431.2
2026-06-21 00:40:56.160,1399.8,1142.7,1365.9,1431.2
2026-06-21 00:40:56.161,1399,1142.7,1364.3,1431.2
2026-06-21 00:40:56.162,1401.4,1142.7,1366.7,1431.2
2026-06-21 00:40:56.163,1403,1142.7,1366.7,1428
2026-06-21 00:40:56.164,1401.4,1142.7,1364.3,1427.2
2026-06-21 00:40:56.165,1399.8,1142.7,1362.7,1428.8
2026-06-21 00:40:56.166,1401.4,1142.7,1365.9,1428
2026-06-21 00:40:56.167,1403.8,1141.1,1366.7,1429.6
2026-06-21 00:40:56.168,1399.8,1138.7,1365.9,1428
2026-06-21 00:40:56.169,1399.8,1141.1,1368.4,1427.2
2026-06-21 00:40:56.170,1403,1140.3,1362.7,1429.6
2026-06-21 00:40:56.171,1401.4,1141.1,1366.7,1429.6
2026-06-21 00:40:56.172,1401.4,1137.1,1366.7,1432
2026-06-21 00:40:56.173,1403.8,1140.3,1366.7,1432
2026-06-21 00:40:56.174,1401.4,1138.7,1366.7,1429.6
2026-06-21 00:40:56.175,1399,1137.1,1365.9,1428.8
2026-06-21 00:40:56.176,1402.2,1136.3,1365.1,1429.6
2026-06-21 00:40:56.177,1403,1133,1368.4,1429.6
2026-06-21 00:40:56.178,1403,1135.5,1365.9,1429.6
2026-06-21 00:40:56.179,1399,1132.2,1365.9,1428.8
2026-06-21 00:40:56.180,1402.2,1133,1367.5,1427.2
2026-06-21 00:40:56.181,1400.6,1137.1,1365.9,1427.2
2026-06-21 00:40:56.182,1402.2,1133,1365.9,1427.2
2026-06-21 00:40:56.183,1403,1130.6,1366.7,1428
2026-06-21 00:40:56.184,1403.8,1131.4,1369.2,1428
2026-06-21 00:40:56.185,1403,1132.2,1365.9,1428
2026-06-21 00:40:56.186,1403,1131.4,1366.7,1428
2026-06-21 00:40:56.187,1403.8,1133,1366.7,1427.2
2026-06-21 00:40:56.200,1403,1133,1367.5,1428
2026-06-21 00:40:56.201,1403,1133,1366.7,1428.8
2026-06-21 00:40:56.202,1399,1133,1367.5,1429.6
2026-06-21 00:40:56.203,1397.4,1133,1366.7,1430.4
2026-06-21 00:40:56.204,1397.4,1133,1368.4,1427.2
2026-06-21 00:40:56.205,1397.4,1133,1366.7,1428
2026-06-21 00:40:56.206,1397.4,1132.2,1366.7,1427.2
2026-06-21 00:40:56.207,1396.6,1133,1365.1,1428
2026-06-21 00:40:56.208,1399,1133,1366.7,1428
2026-06-21 00:40:56.209,1396.6,1133.8,1366.7,1428.8
2026-06-21 00:40:56.210,1403,1132.2,1369.2,1428.8
2026-06-21 00:40:56.211,1397.4,1133,1366.7,1428.8
2026-06-21 00:40:56.212,1399,1129,1365.1,1430.4
2026-06-21 00:40:56.213,1399,1129,1362.7,1428
2026-06-21 00:40:56.214,1399.8,1131.4,1361.1,1430.4
2026-06-21 00:40:56.215,1401.4,1133,1362.7,1430.4
2026-06-21 00:40:56.216,1399.8,1133,1364.3,1430.4
2026-06-21 00:40:56.217,1402.2,1132.2,1365.1,1429.6
2026-06-21 00:40:56.218,1402.2,1133,1365.9,1428.8
2026-06-21 00:40:56.219,1399.8,1134.7,1366.7,1428.8
2026-06-21 00:40:56.220,1399,1135.5,1368.4,1429.6
2026-06-21 00:40:56.221,1399.8,1134.7,1366.7,1431.2
2026-06-21 00:40:56.222,1399,1134.7,1365.1,1430.4
2026-06-21 00:40:56.223,1399.8,1134.7,1366.7,1430.4
2026-06-21 00:40:56.224,1399,1136.3,1365.9,1428.8
2026-06-21 00:40:56.225,1399.8,1134.7,1370,1430.4
2026-06-21 00:40:56.226,1399.8,1135.5,1366.7,1427.2
2026-06-21 00:40:56.227,1400.6,1134.7,1366.7,1427.2
2026-06-21 00:40:56.228,1402.2,1138.7,1365.1,1430.4
2026-06-21 00:40:56.229,1402.2,1141.9,1366.7,1428
2026-06-21 00:40:56.230,1402.2,1140.3,1366.7,1428
2026-06-21 00:40:56.231,1399.8,1141.9,1367.5,1427.2
2026-06-21 00:40:56.232,1399,1137.1,1365.9,1427.2
2026-06-21 00:40:56.233,1401.4,1141.1,1365.1,1430.4
2026-06-21 00:40:56.234,1399,1140.3,1363.5,1430.4
2026-06-21 00:40:56.235,1399,1136.3,1365.9,1430.4
2026-06-21 00:40:56.236,1399,1136.3,1368.4,1429.6
2026-06-21 00:40:56.237,1400.6,1137.9,1366.7,1430.4
2026-06-21 00:40:56.238,1402.2,1136.3,1366.7,1428
2026-06-21 00:40:56.239,1401.4,1137.1,1367.5,1430.4
2026-06-21 00:40:56.240,1403,1134.7,1366.7,1429.6
2026-06-21 00:40:56.241,1401.4,1133.8,1365.1,1428.8
2026-06-21 00:40:56.242,1402.2,1133,1366.7,1427.2
2026-06-21 00:40:56.243,1402.2,1133,1367.5,1426.4
2026-06-21 00:40:56.244,1403,1133,1364.3,1427.2
2026-06-21 00:40:56.245,1403,1133,1366.7,1427.2
2026-06-21 00:40:56.246,1402.2,1133,1366.7,1427.2
2026-06-21 00:40:56.247,1403,1133,1367.5,1428
2026-06-21 00:40:56.248,1403.8,1129,1367.5,1427.2
2026-06-21 00:40:56.249,1402.2,1132.2,1368.4,1428
2026-06-21 00:40:56.237,1399.8,1133.8,1367.5,1427.2
2026-06-21 00:40:56.238,1399.8,1133,1366.7,1427.2
2026-06-21 00:40:56.239,1394.9,1133,1366.7,1427.2
2026-06-21 00:40:56.240,1396.6,1133,1368.4,1428
2026-06-21 00:40:56.241,1395.8,1133,1366.7,1428
2026-06-21 00:40:56.242,1399,1133,1363.5,1427.2
2026-06-21 00:40:56.243,1395.8,1129.8,1366.7,1431.2
2026-06-21 00:40:56.244,1395.8,1133,1368.4,1428.8
2026-06-21 00:40:56.245,1399.8,1133,1365.1,1430.4
2026-06-21 00:40:56.246,1395.8,1131.4,1367.5,1428.8
2026-06-21 00:40:56.247,1396.6,1133,1368.4,1428
2026-06-21 00:40:56.248,1403,1133,1366.7,1429.6
2026-06-21 00:40:56.249,1399,1132.2,1363.5,1428
2026-06-21 00:40:56.250,1399,1132.2,1362.7,1429.6
2026-06-21 00:40:56.251,1399,1133,1364.3,1430.4
2026-06-21 00:40:56.252,1402.2,1133,1365.9,1432
2026-06-21 00:40:56.253,1399.8,1129,1365.1,1432
2026-06-21 00:40:56.254,1402.2,1130.6,1365.1,1428
2026-06-21 00:40:56.255,1403,1130.6,1366.7,1428
2026-06-21 00:40:56.256,1403,1129,1362.7,1428.8
2026-06-21 00:40:56.257,1402.2,1133,1362.7,1428
2026-06-21 00:40:56.258,1399.8,1133,1365.9,1429.6
2026-06-21 00:40:56.259,1403.8,1133,1366.7,1428
2026-06-21 00:40:56.260,1401.4,1133,1363.5,1431.2
2026-06-21 00:40:56.261,1403,1133,1366.7,1431.2
2026-06-21 00:40:56.262,1403.8,1133,1367.5,1430.4
2026-06-21 00:40:56.263,1401.4,1133,1367.5,1429.6
2026-06-21 00:40:56.264,1403,1137.1,1362.7,1432
2026-06-21 00:40:56.265,1403,1134.7,1367.5,1431.2
2026-06-21 00:40:56.266,1399,1136.3,1366.7,1434.4
2026-06-21 00:40:56.267,1399,1135.5,1366.7,1431.2
2026-06-21 00:40:56.268,1399.8,1133,1365.9,1430.4
2026-06-21 00:40:56.269,1399.8,1132.2,1365.1,1431.2
2026-06-21 00:40:56.270,1403,1133,1365.9,1429.6
2026-06-21 00:40:56.271,1402.2,1133.8,1366.7,1428.8
2026-06-21 00:40:56.272,1404.6,1135.5,1366.7,1428
2026-06-21 00:40:56.273,1404.6,1134.7,1367.5,1428
2026-06-21 00:40:56.274,1402.2,1133.8,1366.7,1430.4
2026-06-21 00:40:56.275,1404.6,1133.8,1365.9,1430.4
2026-06-21 00:40:56.276,1402.2,1133,1365.9,1428
2026-06-21 00:40:56.277,1402.2,1133,1366.7,1428
2026-06-21 00:40:56.278,1403,1133,1366.7,1428
2026-06-21 00:40:56.279,1404.6,1133,1366.7,1426.4
2026-06-21 00:40:56.280,1405.4,1129,1366.7,1426.4
2026-06-21 00:40:56.281,1403,1132.2,1365.9,1426.4
2026-06-21 00:40:56.282,1403,1132.2,1365.1,1426.4
2026-06-21 00:40:56.283,1403,1131.4,1367.5,1427.2
2026-06-21 00:40:56.284,1404.6,1132.2,1367.5,1428
2026-06-21 00:40:56.285,1403,1133,1367.5,1428
2026-06-21 00:40:56.286,1399,1133,1364.3,1429.6
2026-06-21 00:40:56.299,1399,1132.2,1366.7,1428.8
2026-06-21 00:40:56.300,1396.6,1132.2,1366.7,1429.6
2026-06-21 00:40:56.301,1394.9,1133,1368.4,1428.8
2026-06-21 00:40:56.302,1398.2,1130.6,1365.9,1430.4
2026-06-21 00:40:56.303,1394.9,1132.2,1365.9,1429.6
2026-06-21 00:40:56.304,1395.8,1133,1365.1,1430.4
2026-06-21 00:40:56.305,1396.6,1133,1366.7,1428
2026-06-21 00:40:56.306,1399,1133,1366.7,1428.8
2026-06-21 00:40:56.307,1397.4,1133,1365.1,1428
2026-06-21 00:40:56.308,1397.4,1133,1366.7,1428
2026-06-21 00:40:56.309,1399,1130.6,1367.5,1428
2026-06-21 00:40:56.310,1399.8,1133,1366.7,1427.2
2026-06-21 00:40:56.311,1401.4,1133,1368.4,1431.2
2026-06-21 00:40:56.312,1403,1135.5,1361.9,1431.2
2026-06-21 00:40:56.313,1403,1133,1363.5,1430.4
2026-06-21 00:40:56.314,1401.4,1133,1364.3,1427.2
2026-06-21 00:40:56.315,1403,1125,1365.9,1429.6
2026-06-21 00:40:56.316,1399,1125.8,1365.9,1430.4
2026-06-21 00:40:56.317,1399,1122.6,1365.1,1430.4
2026-06-21 00:40:56.318,1399,1125,1362.7,1429.6
2026-06-21 00:40:56.319,1399,1129,1365.9,1428.8
2026-06-21 00:40:56.320,1399.8,1128.2,1365.1,1429.6
2026-06-21 00:40:56.321,1400.6,1129.8,1364.3,1430.4
2026-06-21 00:40:56.322,1402.2,1129.8,1365.9,1430.4
2026-06-21 00:40:56.323,1401.4,1133,1366.7,1430.4
2026-06-21 00:40:56.324,1404.6,1131.4,1365.1,1428.8
2026-06-21 00:40:56.325,1403,1129,1366.7,1429.6
2026-06-21 00:40:56.326,1402.2,1130.6,1365.1,1429.6
2026-06-21 00:40:56.327,1399.8,1131.4,1367.5,1430.4
2026-06-21 00:40:56.328,1402.2,1130.6,1366.7,1432
2026-06-21 00:40:56.329,1403.8,1125.8,1366.7,1430.4
2026-06-21 00:40:56.330,1401.4,1131.4,1365.1,1430.4
2026-06-21 00:40:56.331,1401.4,1129.8,1366.7,1428
2026-06-21 00:40:56.332,1404.6,1131.4,1362.7,1432
2026-06-21 00:40:56.333,1399.8,1133,1365.1,1429.6
2026-06-21 00:40:56.334,1403,1131.4,1366.7,1428.8
2026-06-21 00:40:56.335,1403.8,1129,1366.7,1428.8
2026-06-21 00:40:56.336,1403.8,1131.4,1367.5,1428
2026-06-21 00:40:56.337,1403,1133,1365.9,1428.8
2026-06-21 00:40:56.338,1401.4,1131.4,1366.7,1427.2
2026-06-21 00:40:56.339,1401.4,1133,1366.7,1428.8
2026-06-21 00:40:56.340,1401.4,1133,1366.7,1428
2026-06-21 00:40:56.341,1403,1132.2,1367.5,1427.2
2026-06-21 00:40:56.342,1403,1131.4,1367.5,1426.4
2026-06-21 00:40:56.343,1403,1129,1365.9,1427.2
2026-06-21 00:40:56.344,1403,1129,1364.3,1427.2
2026-06-21 00:40:56.345,1402.2,1133,1366.7,1428.8
2026-06-21 00:40:56.346,1401.4,1133,1367.5,1427.2
2026-06-21 00:40:56.347,1403,1132.2,1366.7,1428.8
2026-06-21 00:40:56.348,1406.2,1133,1366.7,1427.2
2026-06-21 00:40:56.338,1402.2,1131.4,1370,1427.2
2026-06-21 00:40:56.339,1397.4,1132.2,1367.5,1428
2026-06-21 00:40:56.340,1395.8,1132.2,1367.5,1428
2026-06-21 00:40:56.341,1395.8,1133,1366.7,1429.6
2026-06-21 00:40:56.342,1394.9,1130.6,1366.7,1430.4
2026-06-21 00:40:56.343,1397.4,1129.8,1368.4,1430.4
2026-06-21 00:40:56.344,1396.6,1129,1370,1430.4
2026-06-21 00:40:56.345,1399,1130.6,1366.7,1429.6
2026-06-21 00:40:56.346,1399,1131.4,1366.7,1428.8
2026-06-21 00:40:56.347,1399,1129,1369.2,1429.6
2026-06-21 00:40:56.348,1398.2,1130.6,1366.7,1430.4
2026-06-21 00:40:56.349,1400.6,1132.2,1367.5,1427.2
2026-06-21 00:40:56.350,1399.8,1133,1366.7,1430.4
2026-06-21 00:40:56.351,1401.4,1133,1366.7,1428.8
2026-06-21 00:40:56.352,1399.8,1132.2,1362.7,1430.4
2026-06-21 00:40:56.353,1402.2,1132.2,1365.1,1430.4
2026-06-21 00:40:56.354,1402.2,1133,1364.3,1430.4
2026-06-21 00:40:56.355,1403,1130.6,1363.5,1429.6
2026-06-21 00:40:56.356,1403,1129,1362.7,1431.2
2026-06-21 00:40:56.357,1402.2,1130.6,1365.9,1428
2026-06-21 00:40:56.358,1399.8,1131.4,1365.9,1431.2
2026-06-21 00:40:56.359,1399,1132.2,1366.7,1430.4
2026-06-21 00:40:56.360,1402.2,1130.6,1364.3,1430.4
2026-06-21 00:40:56.361,1402.2,1129.8,1366.7,1429.6
2026-06-21 00:40:56.362,1403,1129,1365.1,1430.4
2026-06-21 00:40:56.363,1402.2,1129.8,1366.7,1429.6
2026-06-21 00:40:56.364,1402.2,1130.6,1364.3,1429.6
2026-06-21 00:40:56.365,1405.4,1132.2,1367.5,1431.2
2026-06-21 00:40:56.366,1399.8,1129.8,1366.7,1428.8
2026-06-21 00:40:56.367,1399,1130.6,1366.7,1430.4
2026-06-21 00:40:56.368,1403.8,1130.6,1366.7,1428
2026-06-21 00:40:56.369,1403.8,1132.2,1366.7,1429.6
2026-06-21 00:40:56.370,1398.2,1130.6,1365.1,1429.6
2026-06-21 00:40:56.371,1399.8,1129,1366.7,1430.4
2026-06-21 00:40:56.372,1403,1129.8,1365.1,1430.4
2026-06-21 00:40:56.373,1401.4,1130.6,1366.7,1428.8
2026-06-21 00:40:56.374,1401.4,1131.4,1365.1,1430.4
2026-06-21 00:40:56.375,1403,1130.6,1366.7,1428.8
2026-06-21 00:40:56.376,1400.6,1126.6,1365.1,1429.6
2026-06-21 00:40:56.377,1403.8,1129,1366.7,1427.2
2026-06-21 00:40:56.378,1403.8,1130.6,1366.7,1428.8
2026-06-21 00:40:56.379,1403,1129.8,1365.1,1427.2
2026-06-21 00:40:56.380,1403,1126.6,1365.9,1427.2
2026-06-21 00:40:56.381,1399.8,1129,1365.1,1426.4
2026-06-21 00:40:56.382,1399.8,1129,1366.7,1426.4
2026-06-21 00:40:56.383,1399.8,1131.4,1368.4,1427.2
2026-06-21 00:40:56.384,1401.4,1130.6,1368.4,1426.4
2026-06-21 00:40:56.385,1402.2,1133,1367.5,1428.8
2026-06-21 00:40:56.386,1402.2,1132.2,1367.5,1428
2026-06-21 00:40:56.387,1403,1129,1370,1428
2026-06-21 00:40:56.399,1397.4,1129,1366.7,1428
2026-06-21 00:40:56.400,1399,1131.4,1366.7,1429.6
2026-06-21 00:40:56.401,1399,1133,1365.9,1431.2
2026-06-21 00:40:56.402,1399,1131.4,1366.7,1429.6
2026-06-21 00:40:56.403,1399,1128.2,1367.5,1431.2
2026-06-21 00:40:56.404,1399,1129,1366.7,1429.6
2026-06-21 00:40:56.405,1399.8,1129.8,1366.7,1428
2026-06-21 00:40:56.406,1397.4,1131.4,1366.7,1428.8
2026-06-21 00:40:56.407,1399,1131.4,1365.9,1427.2
2026-06-21 00:40:56.408,1399,1133,1366.7,1428.8
2026-06-21 00:40:56.409,1399.8,1132.2,1365.9,1428
2026-06-21 00:40:56.410,1397.4,1133,1366.7,1427.2
2026-06-21 00:40:56.411,1397.4,1131.4,1362.7,1429.6
2026-06-21 00:40:56.412,1399.8,1132.2,1365.1,1430.4
2026-06-21 00:40:56.413,1399,1130.6,1362.7,1430.4
2026-06-21 00:40:56.414,1398.2,1131.4,1365.1,1429.6
2026-06-21 00:40:56.415,1399.8,1127.4,1365.9,1429.6
2026-06-21 00:40:56.416,1403,1128.2,1365.1,1429.6
2026-06-21 00:40:56.417,1399.8,1126.6,1364.3,1428
2026-06-21 00:40:56.418,1404.6,1129,1366.7,1428
2026-06-21 00:40:56.419,1399,1130.6,1365.9,1428.8
2026-06-21 00:40:56.420,1402.2,1130.6,1365.9,1428.8
2026-06-21 00:40:56.421,1399.8,1133,1365.1,1429.6
2026-06-21 00:40:56.422,1402.2,1128.2,1367.5,1428.8
2026-06-21 00:40:56.423,1399.8,1129,1365.1,1428
2026-06-21 00:40:56.424,1399,1129,1365.9,1429.6
2026-06-21 00:40:56.425,1399.8,1129,1365.9,1428
2026-06-21 00:40:56.426,1399.8,1129,1364.3,1431.2
2026-06-21 00:40:56.427,1403,1129,1366.7,1430.4
2026-06-21 00:40:56.428,1399,1130.6,1369.2,1431.2
2026-06-21 00:40:56.429,1402.2,1131.4,1364.3,1430.4
2026-06-21 00:40:56.430,1399.8,1131.4,1366.7,1428
2026-06-21 00:40:56.431,1399,1129,1365.9,1429.6
2026-06-21 00:40:56.432,1403,1129.8,1366.7,1430.4
2026-06-21 00:40:56.433,1399,1130.6,1365.1,1429.6
2026-06-21 00:40:56.434,1403,1133,1366.7,1429.6
2026-06-21 00:40:56.435,1403,1132.2,1366.7,1429.6
2026-06-21 00:40:56.436,1400.6,1130.6,1366.7,1428
2026-06-21 00:40:56.437,1399,1129.8,1365.9,1430.4
2026-06-21 00:40:56.438,1399,1130.6,1365.9,1429.6
2026-06-21 00:40:56.439,1399.8,1129,1365.9,1429.6
2026-06-21 00:40:56.440,1399.8,1130.6,1366.7,1428.8
2026-06-21 00:40:56.441,1403,1131.4,1366.7,1427.2
2026-06-21 00:40:56.442,1399.8,1133,1365.9,1427.2
2026-06-21 00:40:56.443,1402.2,1132.2,1367.5,1425.6
2026-06-21 00:40:56.444,1399.8,1132.2,1366.7,1427.2
2026-06-21 00:40:56.445,1403.8,1132.2,1368.4,1428
2026-06-21 00:40:56.446,1401.4,1131.4,1365.9,1427.2
2026-06-21 00:40:56.447,1403,1132.2,1366.7,1428
2026-06-21 00:40:56.448,1399.8,1129.8,1365.9,1427.2
2026-06-21 00:40:56.438,1394.9,1133,1366.7,1427.2
2026-06-21 00:40:56.439,1395.8,1133,1366.7,1429.6
2026-06-21 00:40:56.440,1394.9,1130.6,1366.7,1428
2026-06-21 00:40:56.441,1399,1131.4,1365.9,1428
2026-06-21 00:40:56.442,1397.4,1129,1366.7,1427.2
2026-06-21 00:40:56.443,1397.4,1133,1366.7,1428
2026-06-21 00:40:56.444,1399,1131.4,1368.4,1429.6
2026-06-21 00:40:56.445,1396.6,1133,1366.7,1427.2
2026-06-21 00:40:56.446,1398.2,1130.6,1368.4,1428.8
2026-06-21 00:40:56.447,1397.4,1133,1368.4,1428.8
2026-06-21 00:40:56.448,1399,1133,1366.7,1427.2
2026-06-21 00:40:56.449,1399,1132.2,1366.7,1428
2026-06-21 00:40:56.450,1402.2,1130.6,1363.5,1429.6
2026-06-21 00:40:56.451,1398.2,1130.6,1364.3,1427.2
2026-06-21 00:40:56.452,1403.8,1131.4,1357.9,1428.8
2026-06-21 00:40:56.453,1401.4,1131.4,1364.3,1428.8
2026-06-21 00:40:56.454,1403.8,1129,1363.5,1428
2026-06-21 00:40:56.455,1402.2,1129.8,1366.7,1429.6
2026-06-21 00:40:56.456,1402.2,1126.6,1365.1,1429.6
2026-06-21 00:40:56.457,1399.8,1129,1366.7,1430.4
2026-06-21 00:40:56.458,1402.2,1125.8,1366.7,1428
2026-06-21 00:40:56.459,1399,1125.8,1365.1,1429.6
2026-06-21 00:40:56.460,1403,1129.8,1365.9,1429.6
2026-06-21 00:40:56.461,1401.4,1129,1364.3,1432.8
2026-06-21 00:40:56.462,1399.8,1128.2,1365.9,1430.4
2026-06-21 00:40:56.463,1403,1129,1365.9,1430.4
2026-06-21 00:40:56.464,1399,1132.2,1366.7,1431.2
2026-06-21 00:40:56.465,1401.4,1131.4,1366.7,1428.8
2026-06-21 00:40:56.466,1399,1129,1366.7,1430.4
2026-06-21 00:40:56.467,1399.8,1130.6,1365.9,1431.2
2026-06-21 00:40:56.468,1401.4,1129,1365.1,1427.2
2026-06-21 00:40:56.469,1399.8,1133,1366.7,1429.6
2026-06-21 00:40:56.470,1399,1132.2,1368.4,1428
2026-06-21 00:40:56.471,1403,1131.4,1365.9,1432
2026-06-21 00:40:56.472,1399,1133,1363.5,1430.4
2026-06-21 00:40:56.473,1399,1133,1365.9,1430.4
2026-06-21 00:40:56.474,1399.8,1132.2,1366.7,1429.6
2026-06-21 00:40:56.475,1403,1130.6,1366.7,1429.6
2026-06-21 00:40:56.476,1402.2,1133,1364.3,1432
2026-06-21 00:40:56.477,1399.8,1132.2,1366.7,1428
2026-06-21 00:40:56.478,1401.4,1129,1365.1,1429.6
2026-06-21 00:40:56.479,1401.4,1131.4,1366.7,1430.4
2026-06-21 00:40:56.480,1399.8,1131.4,1368.4,1427.2
2026-06-21 00:40:56.481,1397.4,1129,1365.1,1426.4
2026-06-21 00:40:56.482,1402.2,1133,1365.9,1427.2
2026-06-21 00:40:56.483,1402.2,1132.2,1366.7,1427.2
2026-06-21 00:40:56.484,1399.8,1129,1366.7,1427.2
2026-06-21 00:40:56.485,1399,1129,1366.7,1427.2
2026-06-21 00:40:56.486,1403,1129,1369.2,1427.2
2026-06-21 00:40:56.487,1399.8,1132.2,1366.7,1428
2026-06-21 00:40:56.499,1397.4,1132.2,1366.7,1428.8
2026-06-21 00:40:56.500,1395.8,1132.2,1370,1428.8
2026-06-21 00:40:56.501,1395.8,1132.2,1369.2,1428.8
2026-06-21 00:40:56.502,1394.9,1133,1366.7,1428.8
2026-06-21 00:40:56.503,1397.4,1133,1370,1432
2026-06-21 00:40:56.504,1394.9,1132.2,1366.7,1433.6
2026-06-21 00:40:56.505,1397.4,1131.4,1366.7,1428.8
2026-06-21 00:40:56.506,1396.6,1130.6,1366.7,1427.2
2026-06-21 00:40:56.507,1399,1131.4,1364.3,1428
2026-06-21 00:40:56.508,1399,1129,1366.7,1428
2026-06-21 00:40:56.509,1396.6,1130.6,1366.7,1427.2
2026-06-21 00:40:56.510,1394.9,1130.6,1366.7,1427.2
2026-06-21 00:40:56.511,1399,1133,1368.4,1428
2026-06-21 00:40:56.512,1399,1129,1362.7,1429.6
2026-06-21 00:40:56.513,1399,1129,1362.7,1429.6
2026-06-21 00:40:56.514,1397.4,1131.4,1362.7,1429.6
2026-06-21 00:40:56.515,1399,1130.6,1365.9,1428
2026-06-21 00:40:56.516,1399,1129,1365.1,1431.2
2026-06-21 00:40:56.517,1403.8,1129.8,1366.7,1428.8
2026-06-21 00:40:56.518,1400.6,1129,1365.9,1428.8
2026-06-21 00:40:56.519,1403,1126.6,1365.9,1427.2
2026-06-21 00:40:56.520,1402.2,1128.2,1365.1,1429.6
2026-06-21 00:40:56.521,1399,1129,1365.9,1430.4
2026-06-21 00:40:56.522,1399.8,1129,1365.9,1430.4
2026-06-21 00:40:56.523,1398.2,1125.8,1365.9,1432
2026-06-21 00:40:56.524,1402.2,1129,1363.5,1430.4
2026-06-21 00:40:56.525,1399,1132.2,1365.9,1429.6
2026-06-21 00:40:56.526,1399,1133,1363.5,1428
2026-06-21 00:40:56.527,1399.8,1130.6,1365.1,1432
2026-06-21 00:40:56.528,1399.8,1129,1365.1,1428.8
2026-06-21 00:40:56.529,1399.8,1133,1365.1,1429.6
2026-06-21 00:40:56.530,1399,1128.2,1366.7,1429.6
2026-06-21 00:40:56.531,1403.8,1133,1366.7,1429.6
2026-06-21 00:40:56.532,1399,1133,1365.9,1428.8
2026-06-21 00:40:56.533,1399.8,1133,1365.1,1428.8
2026-06-21 00:40:56.534,1397.4,1132.2,1366.7,1429.6
2026-06-21 00:40:56.535,1399,1129,1366.7,1428
2026-06-21 00:40:56.536,1399.8,1129,1366.7,1428.8
2026-06-21 00:40:56.537,1399.8,1129.8,1367.5,1430.4
2026-06-21 00:40:56.538,1401.4,1129,1368.4,1428
2026-06-21 00:40:56.539,1401.4,1129,1365.9,1428
2026-06-21 00:40:56.540,1402.2,1131.4,1366.7,1427.2
2026-06-21 00:40:56.541,1397.4,1129,1366.7,1426.4
2026-06-21 00:40:56.542,1401.4,1132.2,1367.5,1427.2
2026-06-21 00:40:56.543,1399,1129,1367.5,1427.2
2026-06-21 00:40:56.544,1403,1131.4,1366.7,1427.2
2026-06-21 00:40:56.545,1402.2,1131.4,1365.9,1430.4
2026-06-21 00:40:56.546,1401.4,1131.4,1367.5,1427.2
2026-06-21 00:40:56.547,1403,1132.2,1368.4,1430.4
2026-06-21 00:40:56.548,1400.6,1132.2,1366.7,1429.6
2026-06-21 00:40:56.542,1404.6,1132.2,1368.4,1428.8
2026-06-21 00:40:56.543,1397.4,1130.6,1366.7,1427.2
2026-06-21 00:40:56.544,1394.9,1132.2,1364.3,1430.4
2026-06-21 00:40:56.545,1394.9,1130.6,1367.5,1428
2026-06-21 00:40:56.546,1395.8,1129,1368.4,1429.6
2026-06-21 00:40:56.547,1396.6,1129,1366.7,1428
2026-06-21 00:40:56.548,1395.8,1131.4,1365.9,1430.4
2026-06-21 00:40:56.549,1396.6,1131.4,1365.9,1427.2
2026-06-21 00:40:56.550,1394.9,1132.2,1366.7,1427.2
2026-06-21 00:40:56.551,1394.9,1132.2,1369.2,1427.2
2026-06-21 00:40:56.552,1397.4,1131.4,1366.7,1429.6
2026-06-21 00:40:56.553,1398.2,1131.4,1367.5,1430.4
2026-06-21 00:40:56.554,1399.8,1129,1365.9,1428
2026-06-21 00:40:56.555,1398.2,1126.6,1362.7,1428.8
2026-06-21 00:40:56.556,1399,1133,1363.5,1428.8
2026-06-21 00:40:56.557,1398.2,1131.4,1360.3,1430.4
2026-06-21 00:40:56.558,1402.2,1125.8,1366.7,1429.6
2026-06-21 00:40:56.559,1403,1128.2,1362.7,1429.6
2026-06-21 00:40:56.560,1399.8,1130.6,1364.3,1428.8
2026-06-21 00:40:56.561,1398.2,1130.6,1365.9,1429.6
2026-06-21 00:40:56.562,1399,1129,1365.1,1430.4
2026-06-21 00:40:56.563,1401.4,1129,1364.3,1428
2026-06-21 00:40:56.564,1401.4,1130.6,1368.4,1431.2
2026-06-21 00:40:56.565,1401.4,1130.6,1365.1,1430.4
2026-06-21 00:40:56.566,1399.8,1130.6,1365.1,1428
2026-06-21 00:40:56.567,1401.4,1128.2,1365.9,1428.8
2026-06-21 00:40:56.568,1403,1132.2,1366.7,1430.4
2026-06-21 00:40:56.569,1403.8,1131.4,1365.1,1427.2
2026-06-21 00:40:56.570,1402.2,1130.6,1365.9,1430.4
2026-06-21 00:40:56.571,1403,1131.4,1364.3,1430.4
2026-06-21 00:40:56.572,1399,1133,1366.7,1429.6
2026-06-21 00:40:56.573,1399,1130.6,1365.9,1428
2026-06-21 00:40:56.574,1399.8,1129.8,1370,1429.6
2026-06-21 00:40:56.575,1402.2,1130.6,1368.4,1428.8
2026-06-21 00:40:56.576,1401.4,1131.4,1365.9,1428
2026-06-21 00:40:56.577,1403,1129,1365.9,1431.2
2026-06-21 00:40:56.578,1399,1132.2,1366.7,1428
2026-06-21 00:40:56.579,1399,1131.4,1368.4,1430.4
2026-06-21 00:40:56.580,1399.8,1133,1365.9,1430.4
2026-06-21 00:40:56.581,1399.8,1131.4,1367.5,1428
2026-06-21 00:40:56.582,1400.6,1129,1366.7,1429.6
2026-06-21 00:40:56.583,1402.2,1129,1366.7,1427.2
2026-06-21 00:40:56.584,1399.8,1132.2,1366.7,1428
2026-06-21 00:40:56.585,1402.2,1129,1366.7,1425.6
2026-06-21 00:40:56.586,1403,1128.2,1367.5,1427.2
2026-06-21 00:40:56.587,1403,1129.8,1366.7,1428.8
2026-06-21 00:40:56.588,1404.6,1131.4,1366.7,1427.2
2026-06-21 00:40:56.589,1402.2,1130.6,1368.4,1428.8
2026-06-21 00:40:56.590,1403,1132.2,1366.7,1427.2
2026-06-21 00:40:56.591,1402.2,1131.4,1366.7,1429.6
2026-06-21 00:40:56.600,1402.2,1132.2,1365.9,1429.6
2026-06-21 00:40:56.601,1399,1129.8,1365.9,1427.2
2026-06-21 00:40:56.602,1394.9,1131.4,1367.5,1427.2
2026-06-21 00:40:56.603,1397.4,1133,1367.5,1428.8
2026-06-21 00:40:56.604,1399,1133,1365.1,1427.2
2026-06-21 00:40:56.605,1399,1130.6,1366.7,1428
2026-06-21 00:40:56.606,1398.2,1129,1370,1427.2
2026-06-21 00:40:56.607,1399,1132.2,1366.7,1429.6
2026-06-21 00:40:56.608,1399,1133,1367.5,1431.2
2026-06-21 00:40:56.609,1402.2,1130.6,1366.7,1431.2
2026-06-21 00:40:56.610,1401.4,1133,1366.7,1429.6
2026-06-21 00:40:56.611,1403,1129.8,1367.5,1428
2026-06-21 00:40:56.612,1402.2,1133,1371.6,1427.2
2026-06-21 00:40:56.613,1399.8,1130.6,1364.3,1428
2026-06-21 00:40:56.614,1399.8,1132.2,1361.9,1428.8
2026-06-21 00:40:56.615,1401.4,1130.6,1362.7,1426.4
2026-06-21 00:40:56.616,1404.6,1126.6,1365.1,1429.6
2026-06-21 00:40:56.617,1403,1125,1364.3,1429.6
2026-06-21 00:40:56.618,1401.4,1129,1365.9,1429.6
2026-06-21 00:40:56.619,1401.4,1125.8,1366.7,1428.8
2026-06-21 00:40:56.620,1402.2,1130.6,1366.7,1430.4
2026-06-21 00:40:56.621,1401.4,1132.2,1365.1,1428.8
2026-06-21 00:40:56.622,1399.8,1129,1364.3,1428.8
2026-06-21 00:40:56.623,1401.4,1131.4,1362.7,1431.2
2026-06-21 00:40:56.624,1401.4,1130.6,1365.1,1428.8
2026-06-21 00:40:56.625,1401.4,1129,1365.9,1428.8
2026-06-21 00:40:56.626,1401.4,1132.2,1365.1,1428
2026-06-21 00:40:56.627,1402.2,1129,1365.9,1428
2026-06-21 00:40:56.628,1399.8,1131.4,1366.7,1430.4
2026-06-21 00:40:56.629,1400.6,1130.6,1365.9,1430.4
2026-06-21 00:40:56.630,1403.8,1130.6,1364.3,1428.8
2026-06-21 00:40:56.631,1401.4,1129,1366.7,1428
2026-06-21 00:40:56.632,1399,1130.6,1364.3,1427.2
2026-06-21 00:40:56.633,1402.2,1130.6,1368.4,1428
2026-06-21 00:40:56.634,1405.4,1131.4,1366.7,1428.8
2026-06-21 00:40:56.635,1403.8,1130.6,1368.4,1429.6
2026-06-21 00:40:56.636,1402.2,1132.2,1365.9,1429.6
2026-06-21 00:40:56.637,1402.2,1133,1366.7,1430.4
2026-06-21 00:40:56.638,1399.8,1131.4,1365.9,1429.6
2026-06-21 00:40:56.639,1399.8,1131.4,1365.9,1429.6
2026-06-21 00:40:56.640,1399.8,1130.6,1366.7,1428.8
2026-06-21 00:40:56.641,1402.2,1129,1366.7,1429.6
2026-06-21 00:40:56.642,1401.4,1131.4,1366.7,1426.4
2026-06-21 00:40:56.643,1403,1129.8,1365.1,1427.2
2026-06-21 00:40:56.644,1399.8,1132.2,1365.9,1427.2
2026-06-21 00:40:56.645,1403,1129,1367.5,1428
2026-06-21 00:40:56.646,1399.8,1130.6,1366.7,1428
2026-06-21 00:40:56.647,1401.4,1130.6,1368.4,1427.2
2026-06-21 00:40:56.648,1401.4,1131.4,1365.9,1429.6
2026-06-21 00:40:56.649,1406.2,1130.6,1366.7,1429.6
2026-06-21 00:40:56.640,1398.2,1130.6,1368.4,1427.2
2026-06-21 00:40:56.641,1394.9,1129.8,1367.5,1430.4
2026-06-21 00:40:56.642,1395.8,1133,1367.5,1428.8
2026-06-21 00:40:56.643,1396.6,1129,1368.4,1429.6
2026-06-21 00:40:56.644,1396.6,1130.6,1368.4,1427.2
2026-06-21 00:40:56.645,1396.6,1133,1366.7,1428
2026-06-21 00:40:56.646,1396.6,1130.6,1365.9,1428.8
2026-06-21 00:40:56.647,1399,1132.2,1367.5,1428.8
2026-06-21 00:40:56.648,1395.8,1129.8,1366.7,1428
2026-06-21 00:40:56.649,1398.2,1131.4,1366.7,1430.4
2026-06-21 00:40:56.650,1399.8,1129.8,1365.9,1427.2
2026-06-21 00:40:56.651,1399,1133,1369.2,1427.2
2026-06-21 00:40:56.652,1401.4,1133,1363.5,1429.6
2026-06-21 00:40:56.653,1399.8,1133,1362.7,1430.4
2026-06-21 00:40:56.654,1399,1133,1362.7,1428
2026-06-21 00:40:56.655,1399.8,1132.2,1362.7,1429.6
2026-06-21 00:40:56.656,1401.4,1125.8,1362.7,1432.8
2026-06-21 00:40:56.657,1401.4,1129,1362.7,1430.4
2026-06-21 00:40:56.658,1401.4,1129,1365.9,1430.4
2026-06-21 00:40:56.659,1403,1129,1365.9,1429.6
2026-06-21 00:40:56.660,1403,1129,1362.7,1430.4
2026-06-21 00:40:56.661,1399.8,1129,1361.9,1428
2026-06-21 00:40:56.662,1399.8,1132.2,1363.5,1427.2
2026-06-21 00:40:56.663,1401.4,1131.4,1366.7,1429.6
2026-06-21 00:40:56.664,1401.4,1130.6,1367.5,1429.6
2026-06-21 00:40:56.665,1401.4,1129.8,1365.9,1428.8
2026-06-21 00:40:56.666,1403,1130.6,1365.9,1430.4
2026-06-21 00:40:56.667,1403,1129,1366.7,1429.6
2026-06-21 00:40:56.668,1403,1129,1364.3,1429.6
2026-06-21 00:40:56.669,1400.6,1132.2,1366.7,1428.8
2026-06-21 00:40:56.670,1399.8,1131.4,1366.7,1429.6
2026-06-21 00:40:56.671,1399.8,1131.4,1365.1,1427.2
2026-06-21 00:40:56.672,1401.4,1129,1365.1,1428.8
2026-06-21 00:40:56.673,1399,1130.6,1365.1,1427.2
2026-06-21 00:40:56.674,1399.8,1130.6,1366.7,1428.8
2026-06-21 00:40:56.675,1399.8,1130.6,1363.5,1432
2026-06-21 00:40:56.676,1399.8,1131.4,1366.7,1430.4
2026-06-21 00:40:56.677,1403,1130.6,1366.7,1430.4
2026-06-21 00:40:56.678,1399,1129,1367.5,1430.4
2026-06-21 00:40:56.679,1399,1126.6,1362.7,1428
2026-06-21 00:40:56.680,1399.8,1132.2,1365.1,1428.8
2026-06-21 00:40:56.681,1399.8,1129,1366.7,1429.6
2026-06-21 00:40:56.682,1401.4,1131.4,1366.7,1427.2
2026-06-21 00:40:56.683,1405.4,1131.4,1366.7,1425.6
2026-06-21 00:40:56.684,1403,1129,1367.5,1425.6
2026-06-21 00:40:56.685,1402.2,1132.2,1365.1,1427.2
2026-06-21 00:40:56.686,1402.2,1130.6,1365.9,1428.8
2026-06-21 00:40:56.687,1399.8,1131.4,1367.5,1427.2
2026-06-21 00:40:56.688,1402.2,1130.6,1367.5,1428.8
2026-06-21 00:40:56.689,1402.2,1130.6,1367.5,1427.2
2026-06-21 00:40:56.699,1397.4,1131.4,1365.1,1428
2026-06-21 00:40:56.700,1395.8,1133,1368.4,1428
2026-06-21 00:40:56.701,1397.4,1133,1365.9,1427.2
2026-06-21 00:40:56.702,1395.8,1129.8,1366.7,1431.2
2026-06-21 00:40:56.703,1394.9,1129,1365.9,1430.4
2026-06-21 00:40:56.704,1394.9,1126.6,1366.7,1428.8
2026-06-21 00:40:56.705,1396.6,1133,1367.5,1428
2026-06-21 00:40:56.706,1396.6,1130.6,1366.7,1427.2
2026-06-21 00:40:56.707,1399,1131.4,1366.7,1429.6
2026-06-21 00:40:56.708,1397.4,1133,1365.9,1427.2
2026-06-21 00:40:56.709,1397.4,1133,1365.9,1427.2
2026-06-21 00:40:56.710,1399,1131.4,1369.2,1427.2
2026-06-21 00:40:56.711,1399,1132.2,1362.7,1430.4
2026-06-21 00:40:56.712,1401.4,1129,1362.7,1428
2026-06-21 00:40:56.713,1399.8,1132.2,1364.3,1433.6
2026-06-21 00:40:56.714,1402.2,1132.2,1365.9,1430.4
2026-06-21 00:40:56.715,1399,1132.2,1364.3,1429.6
2026-06-21 00:40:56.716,1404.6,1129.8,1364.3,1429.6
2026-06-21 00:40:56.717,1402.2,1130.6,1364.3,1429.6
2026-06-21 00:40:56.718,1399.8,1125.8,1365.9,1428
2026-06-21 00:40:56.719,1399.8,1129,1365.1,1430.4
2026-06-21 00:40:56.720,1398.2,1126.6,1365.9,1431.2
2026-06-21 00:40:56.721,1399.8,1129.8,1366.7,1428.8
2026-06-21 00:40:56.722,1402.2,1128.2,1366.7,1430.4
2026-06-21 00:40:56.723,1401.4,1128.2,1365.9,1431.2
2026-06-21 00:40:56.724,1402.2,1125.8,1365.1,1432
2026-06-21 00:40:56.725,1399,1129,1368.4,1430.4
2026-06-21 00:40:56.726,1399,1129,1365.9,1430.4
2026-06-21 00:40:56.727,1402.2,1130.6,1366.7,1431.2
2026-06-21 00:40:56.728,1401.4,1131.4,1365.1,1429.6
2026-06-21 00:40:56.729,1399,1129,1366.7,1428
2026-06-21 00:40:56.730,1402.2,1130.6,1365.9,1429.6
2026-06-21 00:40:56.731,1403,1129,1366.7,1428.8
2026-06-21 00:40:56.732,1403.8,1129.8,1366.7,1430.4
2026-06-21 00:40:56.733,1401.4,1133,1366.7,1429.6
2026-06-21 00:40:56.734,1403,1132.2,1365.1,1430.4
2026-06-21 00:40:56.735,1399.8,1131.4,1366.7,1430.4
2026-06-21 00:40:56.736,1399.8,1133,1366.7,1429.6
2026-06-21 00:40:56.737,1403,1132.2,1366.7,1427.2
2026-06-21 00:40:56.738,1401.4,1132.2,1365.1,1431.2
2026-06-21 00:40:56.739,1404.6,1131.4,1367.5,1429.6
2026-06-21 00:40:56.740,1399,1130.6,1365.9,1429.6
2026-06-21 00:40:56.741,1399.8,1130.6,1366.7,1425.6
2026-06-21 00:40:56.742,1403,1133,1366.7,1426.4
2026-06-21 00:40:56.743,1399.8,1130.6,1366.7,1426.4
2026-06-21 00:40:56.744,1403,1130.6,1366.7,1428.8
2026-06-21 00:40:56.745,1399.8,1133,1366.7,1428
2026-06-21 00:40:56.746,1403,1129,1365.9,1427.2
2026-06-21 00:40:56.747,1402.2,1131.4,1367.5,1427.2
2026-06-21 00:40:56.748,1403.8,1133,1370,1427.2
2026-06-21 00:40:56.738,1401.4,1132.2,1365.9,1429.6
2026-06-21 00:40:56.739,1397.4,1132.2,1362.7,1428.8
2026-06-21 00:40:56.740,1395.8,1131.4,1366.7,1427.2
2026-06-21 00:40:56.741,1398.2,1131.4,1366.7,1428.8
2026-06-21 00:40:56.742,1395.8,1133,1366.7,1428.8
2026-06-21 00:40:56.743,1399.8,1130.6,1366.7,1429.6
2026-06-21 00:40:56.744,1398.2,1131.4,1365.9,1427.2
2026-06-21 00:40:56.745,1403,1131.4,1366.7,1430.4
2026-06-21 00:40:56.746,1399,1129.8,1370,1429.6
2026-06-21 00:40:56.747,1399,1129,1371.6,1428
2026-06-21 00:40:56.748,1399,1129,1369.2,1427.2
2026-06-21 00:40:56.749,1399,1129.8,1366.7,1430.4
2026-06-21 00:40:56.750,1399,1133,1365.1,1428
2026-06-21 00:40:56.751,1403.8,1131.4,1365.9,1429.6
2026-06-21 00:40:56.752,1399.8,1133,1362.7,1428
2026-06-21 00:40:56.753,1399,1132.2,1363.5,1428.8
2026-06-21 00:40:56.754,1402.2,1128.2,1365.1,1430.4
2026-06-21 00:40:56.755,1401.4,1131.4,1366.7,1427.2
2026-06-21 00:40:56.756,1401.4,1129,1365.9,1428
2026-06-21 00:40:56.757,1399.8,1125.8,1365.9,1431.2
2026-06-21 00:40:56.758,1398.2,1130.6,1365.9,1430.4
2026-06-21 00:40:56.759,1402.2,1131.4,1365.1,1428.8
2026-06-21 00:40:56.760,1399.8,1129,1363.5,1432
2026-06-21 00:40:56.761,1402.2,1128.2,1367.5,1429.6
2026-06-21 00:40:56.762,1400.6,1131.4,1365.9,1429.6
2026-06-21 00:40:56.763,1401.4,1132.2,1365.9,1429.6
2026-06-21 00:40:56.764,1401.4,1130.6,1365.9,1428.8
2026-06-21 00:40:56.765,1399.8,1130.6,1366.7,1428.8
2026-06-21 00:40:56.766,1399.8,1125,1366.7,1430.4
2026-06-21 00:40:56.767,1399,1130.6,1365.9,1429.6
2026-06-21 00:40:56.768,1399,1133,1366.7,1428
2026-06-21 00:40:56.769,1401.4,1129.8,1366.7,1430.4
2026-06-21 00:40:56.770,1399.8,1133,1366.7,1429.6
2026-06-21 00:40:56.771,1401.4,1131.4,1365.9,1428
2026-06-21 00:40:56.772,1399.8,1129,1365.1,1429.6
2026-06-21 00:40:56.773,1401.4,1133,1368.4,1430.4
2026-06-21 00:40:56.774,1399.8,1130.6,1363.5,1428.8
2026-06-21 00:40:56.775,1399,1132.2,1366.7,1430.4
2026-06-21 00:40:56.776,1402.2,1132.2,1366.7,1427.2
2026-06-21 00:40:56.777,1401.4,1131.4,1368.4,1429.6
2026-06-21 00:40:56.778,1403,1133,1363.5,1428
2026-06-21 00:40:56.779,1403,1129,1365.9,1432
2026-06-21 00:40:56.780,1399.8,1129,1366.7,1427.2
2026-06-21 00:40:56.781,1402.2,1130.6,1365.1,1427.2
2026-06-21 00:40:56.782,1402.2,1130.6,1366.7,1427.2
2026-06-21 00:40:56.783,1402.2,1132.2,1370,1428
2026-06-21 00:40:56.784,1399.8,1130.6,1366.7,1427.2
2026-06-21 00:40:56.785,1405.4,1130.6,1366.7,1427.2
2026-06-21 00:40:56.786,1403,1132.2,1366.7,1427.2
2026-06-21 00:40:56.787,1404.6,1133,1366.7,1428
2026-06-21 00:40:56.799,1403.8,1131.4,1366.7,1429.6
2026-06-21 00:40:56.800,1399.8,1131.4,1367.5,1427.2
2026-06-21 00:40:56.801,1394.9,1132.2,1368.4,1428.8
2026-06-21 00:40:56.802,1395.8,1132.2,1367.5,1427.2
2026-06-21 00:40:56.803,1397.4,1130.6,1368.4,1428.8
2026-06-21 00:40:56.804,1396.6,1133,1364.3,1428
2026-06-21 00:40:56.805,1397.4,1133,1367.5,1429.6
2026-06-21 00:40:56.806,1395.8,1132.2,1368.4,1430.4
2026-06-21 00:40:56.807,1396.6,1130.6,1366.7,1427.2
2026-06-21 00:40:56.808,1396.6,1131.4,1366.7,1430.4
2026-06-21 00:40:56.809,1399,1129.8,1366.7,1428
2026-06-21 00:40:56.810,1399,1132.2,1368.4,1429.6
2026-06-21 00:40:56.811,1397.4,1131.4,1367.5,1428
2026-06-21 00:40:56.812,1399,1133,1370,1429.6
2026-06-21 00:40:56.813,1399,1129,1363.5,1429.6
2026-06-21 00:40:56.814,1399.8,1131.4,1362.7,1429.6
2026-06-21 00:40:56.815,1399.8,1132.2,1362.7,1428.8
2026-06-21 00:40:56.816,1401.4,1129,1362.7,1432
2026-06-21 00:40:56.817,1406.2,1126.6,1365.9,1431.2
2026-06-21 00:40:56.818,1399.8,1129.8,1366.7,1429.6
2026-06-21 00:40:56.819,1399.8,1129,1366.7,1428
2026-06-21 00:40:56.820,1403,1129,1365.9,1430.4
2026-06-21 00:40:56.821,1403.8,1129,1366.7,1430.4
2026-06-21 00:40:56.822,1403,1130.6,1364.3,1428
2026-06-21 00:40:56.823,1401.4,1130.6,1364.3,1429.6
2026-06-21 00:40:56.824,1399,1133,1366.7,1428.8
2026-06-21 00:40:56.825,1399.8,1131.4,1366.7,1428
2026-06-21 00:40:56.826,1399.8,1126.6,1365.9,1430.4
2026-06-21 00:40:56.827,1400.6,1129,1366.7,1430.4
2026-06-21 00:40:56.828,1403.8,1130.6,1366.7,1428.8
2026-06-21 00:40:56.829,1401.4,1128.2,1365.9,1432
2026-06-21 00:40:56.830,1402.2,1129,1365.9,1431.2
2026-06-21 00:40:56.831,1401.4,1130.6,1366.7,1428.8
2026-06-21 00:40:56.832,1399.8,1129,1366.7,1430.4
2026-06-21 00:40:56.833,1403,1130.6,1365.9,1428
2026-06-21 00:40:56.834,1399.8,1129.8,1365.9,1427.2
2026-06-21 00:40:56.835,1403,1125,1364.3,1429.6
2026-06-21 00:40:56.836,1399,1133,1366.7,1428
2026-06-21 00:40:56.837,1400.6,1129,1365.9,1428.8
2026-06-21 00:40:56.838,1399.8,1133,1368.4,1429.6
2026-06-21 00:40:56.839,1403,1133,1366.7,1428.8
2026-06-21 00:40:56.840,1399.8,1133,1366.7,1429.6
2026-06-21 00:40:56.841,1401.4,1130.6,1366.7,1427.2
2026-06-21 00:40:56.842,1403,1131.4,1366.7,1427.2
2026-06-21 00:40:56.843,1401.4,1130.6,1366.7,1427.2
2026-06-21 00:40:56.844,1403,1130.6,1368.4,1427.2
2026-06-21 00:40:56.845,1403.8,1132.2,1367.5,1428
2026-06-21 00:40:56.846,1399.8,1132.2,1366.7,1429.6
2026-06-21 00:40:56.847,1401.4,1130.6,1366.7,1427.2
2026-06-21 00:40:56.848,1402.2,1130.6,1367.5,1428
2026-06-21 00:40:56.837,1399.8,1132.2,1368.4,1429.6
2026-06-21 00:40:56.838,1394.9,1133,1370,1427.2
2026-06-21 00:40:56.839,1397.4,1130.6,1366.7,1427.2
2026-06-21 00:40:56.840,1396.6,1133,1365.9,1428
2026-06-21 00:40:56.841,1399,1130.6,1365.1,1429.6
2026-06-21 00:40:56.842,1399,1131.4,1364.3,1428
2026-06-21 00:40:56.843,1399,1130.6,1366.7,1428.8
2026-06-21 00:40:56.844,1399,1131.4,1367.5,1429.6
2026-06-21 00:40:56.845,1396.6,1132.2,1369.2,1430.4
2026-06-21 00:40:56.846,1397.4,1132.2,1366.7,1427.2
2026-06-21 00:40:56.847,1399,1132.2,1367.5,1428.8
2026-06-21 00:40:56.848,1402.2,1129,1365.9,1428.8
2026-06-21 00:40:56.849,1399,1132.2,1365.1,1429.6
2026-06-21 00:40:56.850,1399.8,1130.6,1361.9,1429.6
2026-06-21 00:40:56.851,1399.8,1130.6,1362.7,1430.4
2026-06-21 00:40:56.852,1399.8,1132.2,1364.3,1430.4
2026-06-21 00:40:56.853,1403,1125.8,1365.9,1430.4
2026-06-21 00:40:56.854,1399.8,1129,1364.3,1428.8
2026-06-21 00:40:56.855,1403,1128.2,1364.3,1429.6
2026-06-21 00:40:56.856,1399.8,1126.6,1365.1,1428.8
2026-06-21 00:40:56.857,1403,1128.2,1369.2,1428
2026-06-21 00:40:56.858,1404.6,1128.2,1366.7,1428.8
2026-06-21 00:40:56.859,1403,1128.2,1365.1,1429.6
2026-06-21 00:40:56.860,1403,1130.6,1366.7,1427.2
2026-06-21 00:40:56.861,1405.4,1128.2,1366.7,1427.2
2026-06-21 00:40:56.862,1403,1130.6,1368.4,1428
2026-06-21 00:40:56.863,1403,1131.4,1365.1,1428
2026-06-21 00:40:56.864,1403,1128.2,1364.3,1428.8
2026-06-21 00:40:56.865,1399.8,1129,1366.7,1430.4
2026-06-21 00:40:56.866,1399.8,1129,1366.7,1430.4
2026-06-21 00:40:56.867,1401.4,1128.2,1366.7,1430.4
2026-06-21 00:40:56.868,1403.8,1131.4,1366.7,1430.4
2026-06-21 00:40:56.869,1403,1132.2,1365.9,1432
2026-06-21 00:40:56.870,1399.8,1133,1366.7,1429.6
2026-06-21 00:40:56.871,1401.4,1128.2,1366.7,1430.4
2026-06-21 00:40:56.872,1403,1129,1366.7,1431.2
2026-06-21 00:40:56.873,1403,1129,1366.7,1432
2026-06-21 00:40:56.874,1403,1131.4,1365.9,1429.6
2026-06-21 00:40:56.875,1403,1126.6,1366.7,1432
2026-06-21 00:40:56.876,1399.8,1129,1365.9,1428
2026-06-21 00:40:56.877,1399,1129.8,1365.1,1429.6
2026-06-21 00:40:56.878,1403,1126.6,1366.7,1430.4
2026-06-21 00:40:56.879,1403,1130.6,1366.7,1427.2
2026-06-21 00:40:56.880,1399.8,1129,1368.4,1427.2
2026-06-21 00:40:56.881,1401.4,1131.4,1367.5,1427.2
2026-06-21 00:40:56.882,1403,1129,1366.7,1427.2
2026-06-21 00:40:56.883,1404.6,1133,1367.5,1427.2
2026-06-21 00:40:56.884,1402.2,1129,1366.7,1428
2026-06-21 00:40:56.885,1399,1129,1365.9,1427.2
2026-06-21 00:40:56.886,1403.8,1130.6,1365.1,1428
2026-06-21 00:40:56.899,1397.4,1132.2,1365.9,1427.2
2026-06-21 00:40:56.900,1396.6,1131.4,1366.7,1430.4
2026-06-21 00:40:56.901,1394.9,1129,1366.7,1428
2026-06-21 00:40:56.902,1399,1130.6,1366.7,1427.2
2026-06-21 00:40:56.903,1397.4,1129,1366.7,1428
2026-06-21 00:40:56.904,1396.6,1130.6,1368.4,1430.4
2026-06-21 00:40:56.905,1397.4,1132.2,1366.7,1427.2
2026-06-21 00:40:56.906,1396.6,1131.4,1366.7,1430.4
2026-06-21 00:40:56.907,1399,1130.6,1365.1,1428.8
2026-06-21 00:40:56.908,1399.8,1126.6,1367.5,1427.2
2026-06-21 00:40:56.909,1396.6,1131.4,1366.7,1428.8
2026-06-21 00:40:56.910,1399,1133,1368.4,1427.2
2026-06-21 00:40:56.911,1399,1132.2,1365.9,1430.4
2026-06-21 00:40:56.912,1403,1130.6,1364.3,1428.8
2026-06-21 00:40:56.913,1400.6,1129,1363.5,1427.2
2026-06-21 00:40:56.914,1401.4,1129,1362.7,1429.6
2026-06-21 00:40:56.915,1399.8,1129,1362.7,1429.6
2026-06-21 00:40:56.916,1401.4,1126.6,1365.9,1429.6
2026-06-21 00:40:56.917,1401.4,1129,1366.7,1429.6
2026-06-21 00:40:56.918,1403,1129,1367.5,1429.6
2026-06-21 00:40:56.919,1399.8,1129,1365.1,1428
2026-06-21 00:40:56.920,1401.4,1129,1365.1,1429.6
2026-06-21 00:40:56.921,1403,1128.2,1368.4,1429.6
2026-06-21 00:40:56.922,1399.8,1127.4,1366.7,1428.8
2026-06-21 00:40:56.923,1401.4,1130.6,1364.3,1428
2026-06-21 00:40:56.924,1403,1129,1365.1,1429.6
2026-06-21 00:40:56.925,1399.8,1126.6,1365.1,1428.8
2026-06-21 00:40:56.926,1399.8,1129,1365.9,1429.6
2026-06-21 00:40:56.927,1399.8,1133,1366.7,1430.4
2026-06-21 00:40:56.928,1399.8,1131.4,1366.7,1429.6
2026-06-21 00:40:56.929,1399.8,1129,1365.1,1427.2
2026-06-21 00:40:56.930,1403,1131.4,1368.4,1429.6
2026-06-21 00:40:56.931,1399,1130.6,1366.7,1429.6
2026-06-21 00:40:56.932,1402.2,1132.2,1365.9,1429.6
2026-06-21 00:40:56.933,1401.4,1129,1362.7,1429.6
2026-06-21 00:40:56.934,1401.4,1129.8,1362.7,1430.4
2026-06-21 00:40:56.935,1401.4,1129.8,1366.7,1429.6
2026-06-21 00:40:56.936,1402.2,1128.2,1366.7,1428.8
2026-06-21 00:40:56.937,1403,1128.2,1362.7,1429.6
2026-06-21 00:40:56.938,1401.4,1129,1366.7,1430.4
2026-06-21 00:40:56.939,1402.2,1129,1366.7,1429.6
2026-06-21 00:40:56.940,1402.2,1131.4,1366.7,1430.4
2026-06-21 00:40:56.941,1402.2,1129,1367.5,1427.2
2026-06-21 00:40:56.942,1401.4,1132.2,1366.7,1427.2
2026-06-21 00:40:56.943,1403,1130.6,1364.3,1427.2
2026-06-21 00:40:56.944,1403,1129,1365.9,1426.4
2026-06-21 00:40:56.945,1402.2,1131.4,1368.4,1427.2
2026-06-21 00:40:56.946,1403,1133,1366.7,1427.2
2026-06-21 00:40:56.947,1403,1130.6,1366.7,1428
2026-06-21 00:40:56.948,1404.6,1130.6,1366.7,1429.6
2026-06-21 00:40:56.937,1399,1129,1366.7,1429.6
2026-06-21 00:40:56.938,1399.8,1128.2,1367.5,1428
2026-06-21 00:40:56.939,1394.9,1131.4,1365.9,1426.4
2026-06-21 00:40:56.940,1396.6,1131.4,1366.7,1427.2
2026-06-21 00:40:56.941,1397.4,1133,1365.9,1428
2026-06-21 00:40:56.942,1399,1130.6,1366.7,1428.8
2026-06-21 00:40:56.943,1397.4,1131.4,1366.7,1428
2026-06-21 00:40:56.944,1397.4,1129.8,1367.5,1428.8
2026-06-21 00:40:56.945,1396.6,1129.8,1365.1,1429.6
2026-06-21 00:40:56.946,1396.6,1132.2,1371.6,1428.8
2026-06-21 00:40:56.947,1399,1129.8,1366.7,1427.2
2026-06-21 00:40:56.948,1397.4,1131.4,1365.9,1427.2
2026-06-21 00:40:56.949,1397.4,1131.4,1363.5,1428.8
2026-06-21 00:40:56.950,1399,1131.4,1369.2,1428
2026-06-21 00:40:56.951,1399.8,1130.6,1362.7,1428.8
2026-06-21 00:40:56.952,1399.8,1131.4,1364.3,1432
2026-06-21 00:40:56.953,1399.8,1129.8,1365.9,1428.8
2026-06-21 00:40:56.954,1403,1130.6,1366.7,1429.6
2026-06-21 00:40:56.955,1402.2,1126.6,1364.3,1429.6
2026-06-21 00:40:56.956,1402.2,1128.2,1364.3,1430.4
2026-06-21 00:40:56.957,1402.2,1125,1365.1,1430.4
2026-06-21 00:40:56.958,1403,1126.6,1365.9,1428.8
2026-06-21 00:40:56.959,1402.2,1128.2,1364.3,1428
2026-06-21 00:40:56.960,1399,1128.2,1366.7,1428.8
2026-06-21 00:40:56.961,1399.8,1131.4,1365.9,1427.2
2026-06-21 00:40:56.962,1399.8,1129,1365.1,1428
2026-06-21 00:40:56.963,1401.4,1130.6,1366.7,1428
2026-06-21 00:40:56.964,1403.8,1129,1365.9,1428.8
2026-06-21 00:40:56.965,1399.8,1125.8,1366.7,1429.6
2026-06-21 00:40:56.966,1401.4,1132.2,1368.4,1430.4
2026-06-21 00:40:56.967,1399.8,1128.2,1366.7,1429.6
2026-06-21 00:40:56.968,1401.4,1129,1362.7,1432
2026-06-21 00:40:56.969,1399.8,1129,1368.4,1428
2026-06-21 00:40:56.970,1399.8,1132.2,1365.9,1430.4
2026-06-21 00:40:56.971,1403,1130.6,1365.9,1428.8
2026-06-21 00:40:56.972,1399.8,1132.2,1365.9,1429.6
2026-06-21 00:40:56.973,1402.2,1129,1365.9,1430.4
2026-06-21 00:40:56.974,1402.2,1129,1366.7,1429.6
2026-06-21 00:40:56.975,1402.2,1129,1366.7,1428
2026-06-21 00:40:56.976,1399,1132.2,1366.7,1428.8
2026-06-21 00:40:56.977,1403,1131.4,1365.9,1427.2
2026-06-21 00:40:56.978,1403.8,1129,1365.9,1428.8
2026-06-21 00:40:56.979,1404.6,1126.6,1367.5,1426.4
2026-06-21 00:40:56.980,1399.8,1133,1367.5,1427.2
2026-06-21 00:40:56.981,1402.2,1129.8,1366.7,1428.8
2026-06-21 00:40:56.982,1402.2,1131.4,1366.7,1427.2
2026-06-21 00:40:56.983,1402.2,1130.6,1366.7,1429.6
2026-06-21 00:40:56.984,1403,1133,1366.7,1428
2026-06-21 00:40:56.985,1403,1129,1368.4,1428
2026-06-21 00:40:56.986,1403,1133,1366.7,1427.2
2026-06-21 00:40:57.000,1399,1130.6,1366.7,1427.2
2026-06-21 00:40:57.001,1396.6,1133,1366.7,1427.2
2026-06-21 00:40:57.002,1396.6,1129,1366.7,1428
2026-06-21 00:40:57.003,1396.6,1133,1367.5,1427.2
2026-06-21 00:40:57.004,1397.4,1129.8,1365.9,1427.2
2026-06-21 00:40:57.005,1397.4,1130.6,1366.7,1429.6
2026-06-21 00:40:57.006,1399,1132.2,1367.5,1428
2026-06-21 00:40:57.007,1398.2,1131.4,1366.7,1428.8
2026-06-21 00:40:57.008,1395.8,1129.8,1366.7,1428.8
2026-06-21 00:40:57.009,1401.4,1131.4,1365.1,1430.4
2026-06-21 00:40:57.010,1399,1128.2,1365.1,1428.8
2026-06-21 00:40:57.011,1399,1133,1366.7,1429.6
2026-06-21 00:40:57.012,1396.6,1133,1366.7,1429.6
2026-06-21 00:40:57.013,1397.4,1131.4,1359.5,1428.8
2026-06-21 00:40:57.014,1403,1129,1363.5,1430.4
2026-06-21 00:40:57.015,1402.2,1131.4,1365.1,1429.6
2026-06-21 00:40:57.016,1399,1129,1365.1,1428
2026-06-21 00:40:57.017,1399.8,1129,1366.7,1427.2
2026-06-21 00:40:57.018,1403,1130.6,1365.1,1430.4
2026-06-21 00:40:57.019,1401.4,1132.2,1364.3,1431.2
2026-06-21 00:40:57.020,1401.4,1131.4,1366.7,1430.4
2026-06-21 00:40:57.021,1400.6,1128.2,1365.9,1429.6
2026-06-21 00:40:57.022,1399,1128.2,1365.1,1428.8
2026-06-21 00:40:57.023,1399.8,1128.2,1362.7,1431.2
2026-06-21 00:40:57.024,1403,1129,1364.3,1429.6
2026-06-21 00:40:57.025,1404.6,1127.4,1366.7,1430.4
2026-06-21 00:40:57.026,1403,1130.6,1366.7,1429.6
2026-06-21 00:40:57.027,1405.4,1128.2,1368.4,1427.2
2026-06-21 00:40:57.028,1402.2,1130.6,1365.1,1430.4
2026-06-21 00:40:57.029,1399.8,1129,1365.1,1428.8
2026-06-21 00:40:57.030,1402.2,1128.2,1366.7,1427.2
2026-06-21 00:40:57.031,1400.6,1131.4,1365.9,1428
2026-06-21 00:40:57.032,1402.2,1129,1365.9,1431.2
2026-06-21 00:40:57.033,1402.2,1131.4,1365.1,1428.8
2026-06-21 00:40:57.034,1402.2,1133,1365.1,1428
2026-06-21 00:40:57.035,1403,1130.6,1366.7,1428
2026-06-21 00:40:57.036,1399.8,1130.6,1365.9,1428.8
2026-06-21 00:40:57.037,1399.8,1133,1365.1,1430.4
2026-06-21 00:40:57.038,1399.8,1129,1366.7,1429.6
2026-06-21 00:40:57.039,1399.8,1130.6,1365.9,1429.6
2026-06-21 00:40:57.040,1403.8,1131.4,1365.9,1430.4
2026-06-21 00:40:57.041,1405.4,1130.6,1365.9,1431.2
2026-06-21 00:40:57.042,1403,1132.2,1365.9,1427.2
2026-06-21 00:40:57.043,1403.8,1132.2,1366.7,1427.2
2026-06-21 00:40:57.044,1404.6,1131.4,1366.7,1427.2
2026-06-21 00:40:57.045,1404.6,1130.6,1368.4,1427.2
2026-06-21 00:40:57.046,1401.4,1130.6,1365.1,1428
2026-06-21 00:40:57.047,1401.4,1133,1365.1,1427.2
2026-06-21 00:40:57.048,1402.2,1132.2,1366.7,1426.4
2026-06-21 00:40:57.049,1401.4,1133,1366.7,1428.8
2026-06-21 00:40:57.038,1401.4,1133,1365.1,1428
2026-06-21 00:40:57.039,1394.9,1132.2,1367.5,1430.4
2026-06-21 00:40:57.040,1394.9,1133,1366.7,1430.4
2026-06-21 00:40:57.041,1397.4,1130.6,1366.7,1429.6
2026-06-21 00:40:57.042,1396.6,1133,1367.5,1429.6
2026-06-21 00:40:57.043,1395.8,1130.6,1365.9,1428.8
2026-06-21 00:40:57.044,1395.8,1131.4,1366.7,1428
2026-06-21 00:40:57.045,1397.4,1130.6,1366.7,1429.6
2026-06-21 00:40:57.046,1396.6,1131.4,1368.4,1430.4
2026-06-21 00:40:57.047,1397.4,1133,1364.3,1428
2026-06-21 00:40:57.048,1399,1133,1366.7,1428.8
2026-06-21 00:40:57.049,1399.8,1131.4,1366.7,1430.4
2026-06-21 00:40:57.050,1402.2,1130.6,1370,1429.6
2026-06-21 00:40:57.051,1402.2,1133,1363.5,1429.6
2026-06-21 00:40:57.052,1402.2,1130.6,1364.3,1429.6
2026-06-21 00:40:57.053,1403,1131.4,1363.5,1430.4
2026-06-21 00:40:57.054,1399,1125,1365.1,1428.8
2026-06-21 00:40:57.055,1402.2,1126.6,1364.3,1428.8
2026-06-21 00:40:57.056,1399.8,1129.8,1364.3,1429.6
2026-06-21 00:40:57.057,1403,1129,1365.1,1428.8
2026-06-21 00:40:57.058,1399.8,1129,1363.5,1430.4
2026-06-21 00:40:57.059,1402.2,1131.4,1365.9,1428
2026-06-21 00:40:57.060,1403,1129,1365.1,1427.2
2026-06-21 00:40:57.061,1399.8,1126.6,1365.1,1427.2
2026-06-21 00:40:57.062,1399.8,1129,1366.7,1427.2
2026-06-21 00:40:57.063,1403,1129,1365.9,1428.8
2026-06-21 00:40:57.064,1401.4,1128.2,1365.9,1428.8
2026-06-21 00:40:57.065,1401.4,1131.4,1370,1431.2
2026-06-21 00:40:57.066,1401.4,1126.6,1366.7,1430.4
2026-06-21 00:40:57.067,1403.8,1132.2,1364.3,1430.4
2026-06-21 00:40:57.068,1402.2,1132.2,1365.1,1430.4
2026-06-21 00:40:57.069,1399.8,1132.2,1368.4,1428.8
2026-06-21 00:40:57.070,1399.8,1130.6,1367.5,1430.4
2026-06-21 00:40:57.071,1403,1130.6,1365.9,1431.2
2026-06-21 00:40:57.072,1399,1129,1364.3,1428.8
2026-06-21 00:40:57.073,1399,1131.4,1365.1,1430.4
2026-06-21 00:40:57.074,1403.8,1131.4,1365.1,1428
2026-06-21 00:40:57.075,1401.4,1132.2,1365.1,1428
2026-06-21 00:40:57.076,1399,1129,1365.9,1427.2
2026-06-21 00:40:57.077,1404.6,1133,1368.4,1427.2
2026-06-21 00:40:57.078,1403,1133,1366.7,1430.4
2026-06-21 00:40:57.079,1404.6,1129,1366.7,1428
2026-06-21 00:40:57.080,1401.4,1132.2,1365.1,1427.2
2026-06-21 00:40:57.081,1403,1132.2,1367.5,1425.6
2026-06-21 00:40:57.082,1400.6,1129,1362.7,1426.4
2026-06-21 00:40:57.083,1402.2,1131.4,1367.5,1426.4
2026-06-21 00:40:57.084,1401.4,1133,1365.1,1427.2
2026-06-21 00:40:57.085,1403,1130.6,1366.7,1427.2
2026-06-21 00:40:57.086,1401.4,1129.8,1368.4,1427.2
2026-06-21 00:40:57.087,1401.4,1131.4,1365.9,1428
2026-06-21 00:40:57.099,1395.8,1129,1365.9,1427.2
2026-06-21 00:40:57.100,1395.8,1131.4,1366.7,1428.8
2026-06-21 00:40:57.101,1394.9,1129,1367.5,1428.8
2026-06-21 00:40:57.102,1395.8,1129,1366.7,1428
2026-06-21 00:40:57.103,1397.4,1133,1367.5,1428.8
2026-06-21 00:40:57.104,1395.8,1130.6,1367.5,1429.6
2026-06-21 00:40:57.105,1394.9,1130.6,1366.7,1428
2026-06-21 00:40:57.106,1399.8,1133,1366.7,1427.2
2026-06-21 00:40:57.107,1397.4,1129,1366.7,1428.8
2026-06-21 00:40:57.108,1399.8,1129,1366.7,1429.6
2026-06-21 00:40:57.109,1399,1130.6,1365.1,1430.4
2026-06-21 00:40:57.110,1399,1133,1365.9,1430.4
2026-06-21 00:40:57.111,1397.4,1130.6,1363.5,1428
2026-06-21 00:40:57.112,1403.8,1133,1362.7,1427.2
2026-06-21 00:40:57.113,1398.2,1128.2,1364.3,1430.4
2026-06-21 00:40:57.114,1399,1133,1364.3,1428.8
2026-06-21 00:40:57.115,1401.4,1126.6,1366.7,1431.2
2026-06-21 00:40:57.116,1403,1129.8,1365.1,1430.4
2026-06-21 00:40:57.117,1402.2,1125,1366.7,1429.6
2026-06-21 00:40:57.118,1403,1125.8,1362.7,1428
2026-06-21 00:40:57.119,1401.4,1126.6,1365.9,1428.8
2026-06-21 00:40:57.120,1399,1133,1365.1,1429.6
2026-06-21 00:40:57.121,1402.2,1129,1365.9,1429.6
2026-06-21 00:40:57.122,1403,1131.4,1367.5,1429.6
2026-06-21 00:40:57.123,1400.6,1129.8,1365.9,1430.4
2026-06-21 00:40:57.124,1403,1129,1365.1,1428.8
2026-06-21 00:40:57.125,1403.8,1125,1364.3,1430.4
2026-06-21 00:40:57.126,1403,1126.6,1366.7,1428
2026-06-21 00:40:57.127,1403,1129,1366.7,1430.4
2026-06-21 00:40:57.128,1403,1131.4,1363.5,1428.8
2026-06-21 00:40:57.129,1401.4,1130.6,1366.7,1428.8
2026-06-21 00:40:57.130,1403.8,1128.2,1362.7,1428.8
2026-06-21 00:40:57.131,1399,1132.2,1365.9,1429.6
2026-06-21 00:40:57.132,1402.2,1129.8,1364.3,1428.8
2026-06-21 00:40:57.133,1403.8,1130.6,1365.9,1428.8
2026-06-21 00:40:57.134,1402.2,1131.4,1365.9,1431.2
2026-06-21 00:40:57.135,1403.8,1130.6,1365.1,1427.2
2026-06-21 00:40:57.136,1401.4,1133,1368.4,1430.4
2026-06-21 00:40:57.137,1403.8,1129.8,1366.7,1430.4
2026-06-21 00:40:57.138,1400.6,1132.2,1366.7,1430.4
2026-06-21 00:40:57.139,1402.2,1129.8,1365.1,1431.2
2026-06-21 00:40:57.140,1399,1129,1366.7,1428
2026-06-21 00:40:57.141,1402.2,1131.4,1366.7,1424
2026-06-21 00:40:57.142,1401.4,1131.4,1367.5,1424
2026-06-21 00:40:57.143,1403,1133,1366.7,1425.6
2026-06-21 00:40:57.144,1402.2,1132.2,1367.5,1427.2
2026-06-21 00:40:57.145,1399.8,1133,1366.7,1428
2026-06-21 00:40:57.146,1399.8,1133,1365.1,1427.2
2026-06-21 00:40:57.147,1401.4,1129.8,1367.5,1427.2
2026-06-21 00:40:57.148,1402.2,1133,1366.7,1428
2026-06-21 00:40:57.137,1399,1132.2,1365.9,1427.2
2026-06-21 00:40:57.138,1395.8,1133,1366.7,1430.4
2026-06-21 00:40:57.139,1396.6,1133,1366.7,1428.8
2026-06-21 00:40:57.140,1399,1131.4,1367.5,1427.2
2026-06-21 00:40:57.141,1394.9,1133,1368.4,1427.2
2026-06-21 00:40:57.142,1396.6,1133,1368.4,1430.4
2026-06-21 00:40:57.143,1396.6,1128.2,1366.7,1427.2
2026-06-21 00:40:57.144,1396.6,1133,1367.5,1428.8
2026-06-21 00:40:57.145,1397.4,1129,1366.7,1428.8
2026-06-21 00:40:57.146,1399.8,1131.4,1365.9,1428
2026-06-21 00:40:57.147,1399,1130.6,1366.7,1428.8
2026-06-21 00:40:57.148,1398.2,1132.2,1366.7,1429.6
2026-06-21 00:40:57.149,1399.8,1132.2,1361.9,1428.8
2026-06-21 00:40:57.150,1399,1131.4,1363.5,1430.4
2026-06-21 00:40:57.151,1399.8,1130.6,1361.9,1428
2026-06-21 00:40:57.152,1399.8,1129,1362.7,1427.2
2026-06-21 00:40:57.153,1403.8,1129,1365.1,1430.4
2026-06-21 00:40:57.154,1403,1126.6,1365.9,1429.6
2026-06-21 00:40:57.155,1399,1125,1363.5,1429.6
2026-06-21 00:40:57.156,1403.8,1129,1365.9,1430.4
2026-06-21 00:40:57.157,1403,1129,1365.9,1428.8
2026-06-21 00:40:57.158,1401.4,1129,1366.7,1430.4
2026-06-21 00:40:57.159,1401.4,1129,1364.3,1428.8
2026-06-21 00:40:57.160,1399,1130.6,1368.4,1430.4
2026-06-21 00:40:57.161,1399,1129,1365.9,1428
2026-06-21 00:40:57.162,1401.4,1132.2,1364.3,1429.6
2026-06-21 00:40:57.163,1399,1130.6,1367.5,1429.6
2026-06-21 00:40:57.164,1401.4,1129,1364.3,1428.8
2026-06-21 00:40:57.165,1399.8,1129,1365.1,1430.4
2026-06-21 00:40:57.166,1402.2,1129,1364.3,1429.6
2026-06-21 00:40:57.167,1401.4,1129,1366.7,1429.6
2026-06-21 00:40:57.168,1399.8,1130.6,1366.7,1431.2
2026-06-21 00:40:57.169,1401.4,1129,1366.7,1430.4
2026-06-21 00:40:57.170,1401.4,1126.6,1365.1,1429.6
2026-06-21 00:40:57.171,1403,1129,1365.1,1428.8
2026-06-21 00:40:57.172,1403,1128.2,1365.9,1428.8
2026-06-21 00:40:57.173,1401.4,1129.8,1365.9,1429.6
2026-06-21 00:40:57.174,1401.4,1131.4,1365.1,1428.8
2026-06-21 00:40:57.175,1401.4,1129,1366.7,1431.2
2026-06-21 00:40:57.176,1399,1129,1367.5,1431.2
2026-06-21 00:40:57.177,1401.4,1130.6,1366.7,1430.4
2026-06-21 00:40:57.178,1399.8,1129,1366.7,1432
2026-06-21 00:40:57.179,1403,1130.6,1365.1,1427.2
2026-06-21 00:40:57.180,1402.2,1129,1366.7,1426.4
2026-06-21 00:40:57.181,1399,1129.8,1362.7,1427.2
2026-06-21 00:40:57.182,1402.2,1133,1366.7,1427.2
2026-06-21 00:40:57.183,1403.8,1129,1366.7,1429.6
2026-06-21 00:40:57.184,1401.4,1129.8,1366.7,1428
2026-06-21 00:40:57.185,1402.2,1131.4,1366.7,1428
2026-06-21 00:40:57.186,1403,1125.8,1364.3,1429.6
2026-06-21 00:40:57.206,1399,1130.6,1366.7,1431.2
2026-06-21 00:40:57.207,1394.9,1128.2,1368.4,1427.2
2026-06-21 00:40:57.208,1394.9,1130.6,1366.7,1427.2
2026-06-21 00:40:57.209,1398.2,1132.2,1367.5,1428.8
2026-06-21 00:40:57.210,1398.2,1128.2,1366.7,1427.2
2026-06-21 00:40:57.211,1397.4,1131.4,1363.5,1427.2
2026-06-21 00:40:57.212,1395.8,1129,1367.5,1427.2
2026-06-21 00:40:57.213,1399.8,1130.6,1367.5,1427.2
2026-06-21 00:40:57.214,1397.4,1130.6,1370,1427.2
2026-06-21 00:40:57.215,1397.4,1129,1366.7,1429.6
2026-06-21 00:40:57.216,1399,1130.6,1366.7,1428.8
2026-06-21 00:40:57.217,1395.8,1128.2,1366.7,1427.2
2026-06-21 00:40:57.218,1399,1131.4,1366.7,1428.8
2026-06-21 00:40:57.219,1400.6,1128.2,1361.9,1430.4
2026-06-21 00:40:57.220,1398.2,1129.8,1365.9,1428.8
2026-06-21 00:40:57.221,1397.4,1129.8,1362.7,1429.6
2026-06-21 00:40:57.222,1399.8,1125,1365.1,1427.2
2026-06-21 00:40:57.223,1401.4,1125,1365.1,1430.4
2026-06-21 00:40:57.224,1401.4,1125,1364.3,1428
2026-06-21 00:40:57.225,1402.2,1125.8,1365.9,1428.8
2026-06-21 00:40:57.226,1399.8,1125,1365.9,1429.6
2026-06-21 00:40:57.227,1399,1123.4,1365.9,1430.4
2026-06-21 00:40:57.228,1402.2,1128.2,1368.4,1429.6
2026-06-21 00:40:57.229,1401.4,1131.4,1365.1,1429.6
2026-06-21 00:40:57.230,1405.4,1126.6,1366.7,1431.2
2026-06-21 00:40:57.231,1399.8,1127.4,1368.4,1430.4
2026-06-21 00:40:57.232,1403.8,1127.4,1365.9,1430.4
2026-06-21 00:40:57.233,1399.8,1126.6,1365.9,1429.6
2026-06-21 00:40:57.234,1403,1129.8,1366.7,1429.6
2026-06-21 00:40:57.235,1402.2,1125.8,1366.7,1430.4
2026-06-21 00:40:57.236,1402.2,1126.6,1366.7,1432
2026-06-21 00:40:57.237,1402.2,1129,1365.9,1430.4
2026-06-21 00:40:57.238,1399.8,1129,1366.7,1430.4
2026-06-21 00:40:57.239,1401.4,1130.6,1367.5,1429.6
2026-06-21 00:40:57.240,1403,1125.8,1366.7,1427.2
2026-06-21 00:40:57.241,1402.2,1131.4,1365.9,1431.2
2026-06-21 00:40:57.242,1403.8,1129,1365.9,1428
2026-06-21 00:40:57.243,1403,1126.6,1366.7,1427.2
2026-06-21 00:40:57.244,1403,1126.6,1365.9,1428
2026-06-21 00:40:57.245,1402.2,1130.6,1366.7,1431.2
2026-06-21 00:40:57.246,1403,1126.6,1366.7,1429.6
2026-06-21 00:40:57.247,1399,1129,1366.7,1429.6
2026-06-21 00:40:57.248,1399.8,1130.6,1366.7,1427.2
2026-06-21 00:40:57.249,1403,1129,1366.7,1427.2
2026-06-21 00:40:57.250,1403.8,1129,1365.9,1427.2
2026-06-21 00:40:57.251,1403.8,1129,1366.7,1428.8
2026-06-21 00:40:57.252,1401.4,1131.4,1366.7,1427.2
2026-06-21 00:40:57.253,1399.8,1129,1366.7,1427.2
2026-06-21 00:40:57.254,1402.2,1129,1365.9,1427.2
2026-06-21 00:40:57.255,1403.8,1129,1366.7,1429.6
2026-06-21 00:40:57.238,1402.2,1129,1365.9,1428
2026-06-21 00:40:57.239,1397.4,1126.6,1366.7,1427.2
2026-06-21 00:40:57.240,1396.6,1128.2,1368.4,1427.2
2026-06-21 00:40:57.241,1397.4,1131.4,1366.7,1428
2026-06-21 00:40:57.242,1395.8,1132.2,1366.7,1429.6
2026-06-21 00:40:57.243,1399.8,1130.6,1366.7,1430.4
2026-06-21 00:40:57.244,1395.8,1132.2,1368.4,1428
2026-06-21 00:40:57.245,1397.4,1132.2,1365.1,1427.2
2026-06-21 00:40:57.246,1398.2,1129,1366.7,1428
2026-06-21 00:40:57.247,1401.4,1129,1365.9,1428.8
2026-06-21 00:40:57.248,1401.4,1129.8,1365.1,1430.4
2026-06-21 00:40:57.249,1399,1131.4,1367.5,1428.8
2026-06-21 00:40:57.250,1401.4,1132.2,1367.5,1428.8
2026-06-21 00:40:57.251,1396.6,1129,1363.5,1429.6
2026-06-21 00:40:57.252,1401.4,1130.6,1364.3,1428.8
2026-06-21 00:40:57.253,1402.2,1126.6,1364.3,1431.2
2026-06-21 00:40:57.254,1399,1125.8,1365.9,1429.6
2026-06-21 00:40:57.255,1399.8,1129,1365.1,1428
2026-06-21 00:40:57.256,1399.8,1126.6,1360.3,1430.4
2026-06-21 00:40:57.257,1402.2,1129,1368.4,1428
2026-06-21 00:40:57.258,1403,1129,1365.9,1429.6
2026-06-21 00:40:57.259,1399,1128.2,1366.7,1428.8
2026-06-21 00:40:57.260,1399.8,1129.8,1365.9,1433.6
2026-06-21 00:40:57.261,1402.2,1129,1362.7,1430.4
2026-06-21 00:40:57.262,1401.4,1125.8,1366.7,1430.4
2026-06-21 00:40:57.263,1405.4,1129,1364.3,1428.8
2026-06-21 00:40:57.264,1403,1129.8,1366.7,1431.2
2026-06-21 00:40:57.265,1402.2,1132.2,1365.9,1428
2026-06-21 00:40:57.266,1399.8,1129,1366.7,1430.4
2026-06-21 00:40:57.267,1405.4,1129,1365.9,1429.6
2026-06-21 00:40:57.268,1400.6,1128.2,1366.7,1428
2026-06-21 00:40:57.269,1402.2,1130.6,1365.9,1427.2
2026-06-21 00:40:57.270,1403,1129,1365.9,1428
2026-06-21 00:40:57.271,1402.2,1129,1364.3,1429.6
2026-06-21 00:40:57.272,1401.4,1129,1365.1,1429.6
2026-06-21 00:40:57.273,1403.8,1128.2,1364.3,1428
2026-06-21 00:40:57.274,1399.8,1132.2,1366.7,1429.6
2026-06-21 00:40:57.275,1399,1131.4,1368.4,1429.6
2026-06-21 00:40:57.276,1402.2,1129.8,1367.5,1428
2026-06-21 00:40:57.277,1399.8,1132.2,1365.9,1432
2026-06-21 00:40:57.278,1403.8,1133,1365.1,1430.4
2026-06-21 00:40:57.279,1400.6,1129,1365.1,1430.4
2026-06-21 00:40:57.280,1402.2,1129,1365.9,1427.2
2026-06-21 00:40:57.281,1404.6,1131.4,1366.7,1427.2
2026-06-21 00:40:57.282,1399.8,1130.6,1366.7,1425.6
2026-06-21 00:40:57.283,1403.8,1132.2,1368.4,1428
2026-06-21 00:40:57.284,1403.8,1130.6,1366.7,1428.8
2026-06-21 00:40:57.285,1405.4,1130.6,1366.7,1427.2
2026-06-21 00:40:57.286,1402.2,1131.4,1367.5,1428
2026-06-21 00:40:57.287,1403,1129,1365.9,1428
2026-06-21 00:40:57.304,1403,1131.4,1367.5,1428
2026-06-21 00:40:57.305,1399,1129,1366.7,1430.4
2026-06-21 00:40:57.306,1394.9,1128.2,1365.9,1427.2
2026-06-21 00:40:57.307,1394.9,1129,1366.7,1428
2026-06-21 00:40:57.308,1395.8,1131.4,1366.7,1428.8
2026-06-21 00:40:57.309,1396.6,1129,1366.7,1430.4
2026-06-21 00:40:57.310,1399.8,1131.4,1366.7,1430.4
2026-06-21 00:40:57.311,1399,1131.4,1366.7,1427.2
2026-06-21 00:40:57.312,1397.4,1133,1367.5,1430.4
2026-06-21 00:40:57.313,1399,1129.8,1367.5,1427.2
2026-06-21 00:40:57.314,1399,1133,1365.9,1429.6
2026-06-21 00:40:57.315,1400.6,1129.8,1365.9,1428.8
2026-06-21 00:40:57.316,1399,1129,1370,1428
2026-06-21 00:40:57.317,1399,1133,1362.7,1429.6
2026-06-21 00:40:57.318,1399,1129,1364.3,1430.4
2026-06-21 00:40:57.319,1399.8,1132.2,1361.9,1428
2026-06-21 00:40:57.320,1401.4,1129.8,1364.3,1427.2
2026-06-21 00:40:57.321,1401.4,1125,1364.3,1428.8
2026-06-21 00:40:57.322,1399.8,1129,1366.7,1429.6
2026-06-21 00:40:57.323,1403,1131.4,1362.7,1428
2026-06-21 00:40:57.324,1399,1130.6,1365.1,1431.2
2026-06-21 00:40:57.325,1403,1129,1364.3,1429.6
2026-06-21 00:40:57.326,1399.8,1128.2,1365.9,1430.4
2026-06-21 00:40:57.327,1402.2,1128.2,1365.1,1429.6
2026-06-21 00:40:57.328,1399,1129,1362.7,1429.6
2026-06-21 00:40:57.329,1403,1129.8,1364.3,1429.6
2026-06-21 00:40:57.330,1402.2,1129,1367.5,1430.4
2026-06-21 00:40:57.331,1401.4,1129,1366.7,1429.6
2026-06-21 00:40:57.332,1403,1129,1365.1,1428
2026-06-21 00:40:57.333,1403,1132.2,1366.7,1429.6
2026-06-21 00:40:57.334,1399.8,1129,1365.1,1427.2
2026-06-21 00:40:57.335,1401.4,1129,1366.7,1428.8
2026-06-21 00:40:57.336,1403.8,1128.2,1365.9,1427.2
2026-06-21 00:40:57.337,1399.8,1129,1365.9,1429.6
2026-06-21 00:40:57.338,1402.2,1132.2,1365.1,1428
2026-06-21 00:40:57.339,1403,1129,1366.7,1429.6
2026-06-21 00:40:57.340,1402.2,1129,1365.9,1428.8
2026-06-21 00:40:57.341,1399.8,1129,1365.9,1427.2
2026-06-21 00:40:57.342,1401.4,1129.8,1366.7,1429.6
2026-06-21 00:40:57.343,1403,1130.6,1363.5,1428.8
2026-06-21 00:40:57.344,1403,1130.6,1366.7,1428.8
2026-06-21 00:40:57.345,1402.2,1126.6,1368.4,1427.2
2026-06-21 00:40:57.346,1399.8,1130.6,1366.7,1427.2
2026-06-21 00:40:57.347,1402.2,1129,1365.9,1427.2
2026-06-21 00:40:57.348,1403.8,1129,1366.7,1427.2
2026-06-21 00:40:57.349,1401.4,1131.4,1366.7,1428.8
2026-06-21 00:40:57.350,1401.4,1133,1365.1,1428
2026-06-21 00:40:57.351,1399,1132.2,1365.1,1427.2
2026-06-21 00:40:57.352,1403,1129.8,1364.3,1427.2
2026-06-21 00:40:57.353,1402.2,1132.2,1365.9,1427.2
2026-06-21 00:40:57.337,1399,1131.4,1365.9,1426.4
2026-06-21 00:40:57.338,1398.2,1133,1365.9,1428.8
2026-06-21 00:40:57.339,1394.9,1132.2,1366.7,1428
2026-06-21 00:40:57.340,1394.9,1131.4,1365.1,1427.2
2026-06-21 00:40:57.341,1397.4,1130.6,1368.4,1427.2
2026-06-21 00:40:57.342,1396.6,1132.2,1370,1430.4
2026-06-21 00:40:57.343,1397.4,1129.8,1367.5,1431.2
2026-06-21 00:40:57.344,1397.4,1130.6,1366.7,1428
2026-06-21 00:40:57.345,1398.2,1131.4,1367.5,1429.6
2026-06-21 00:40:57.346,1397.4,1132.2,1365.9,1432
2026-06-21 00:40:57.347,1399,1127.4,1365.9,1428.8
2026-06-21 00:40:57.348,1397.4,1130.6,1366.7,1430.4
2026-06-21 00:40:57.349,1403.8,1133,1362.7,1428.8
2026-06-21 00:40:57.350,1401.4,1131.4,1362.7,1429.6
2026-06-21 00:40:57.351,1399,1133,1364.3,1428.8
2026-06-21 00:40:57.352,1401.4,1132.2,1362.7,1428
2026-06-21 00:40:57.353,1400.6,1129,1365.1,1430.4
2026-06-21 00:40:57.354,1399.8,1129,1364.3,1428
2026-06-21 00:40:57.355,1399.8,1125.8,1365.1,1427.2
2026-06-21 00:40:57.356,1402.2,1126.6,1362.7,1430.4
2026-06-21 00:40:57.357,1399,1132.2,1365.1,1430.4
2026-06-21 00:40:57.358,1402.2,1131.4,1365.1,1430.4
2026-06-21 00:40:57.359,1399.8,1127.4,1364.3,1429.6
2026-06-21 00:40:57.360,1402.2,1131.4,1366.7,1430.4
2026-06-21 00:40:57.361,1403,1130.6,1365.9,1428.8
2026-06-21 00:40:57.362,1399.8,1130.6,1366.7,1428
2026-06-21 00:40:57.363,1401.4,1129,1366.7,1429.6
2026-06-21 00:40:57.364,1401.4,1130.6,1366.7,1427.2
2026-06-21 00:40:57.365,1403,1129,1365.9,1428
2026-06-21 00:40:57.366,1402.2,1125.8,1365.1,1428.8
2026-06-21 00:40:57.367,1399.8,1129,1365.1,1429.6
2026-06-21 00:40:57.368,1402.2,1132.2,1366.7,1430.4
2026-06-21 00:40:57.369,1402.2,1130.6,1368.4,1429.6
2026-06-21 00:40:57.370,1403,1129,1365.9,1428
2026-06-21 00:40:57.371,1402.2,1132.2,1366.7,1427.2
2026-06-21 00:40:57.372,1401.4,1131.4,1365.9,1429.6
2026-06-21 00:40:57.373,1401.4,1125,1366.7,1428
2026-06-21 00:40:57.374,1403.8,1126.6,1365.9,1427.2
2026-06-21 00:40:57.375,1399.8,1131.4,1366.7,1427.2
2026-06-21 00:40:57.376,1402.2,1129,1365.9,1428.8
2026-06-21 00:40:57.377,1403,1133,1366.7,1428
2026-06-21 00:40:57.378,1403,1131.4,1366.7,1429.6
2026-06-21 00:40:57.379,1402.2,1131.4,1364.3,1427.2
2026-06-21 00:40:57.380,1403,1129.8,1367.5,1427.2
2026-06-21 00:40:57.381,1402.2,1129,1367.5,1427.2
2026-06-21 00:40:57.382,1405.4,1133,1366.7,1427.2
2026-06-21 00:40:57.383,1405.4,1132.2,1366.7,1427.2
2026-06-21 00:40:57.384,1402.2,1131.4,1365.9,1427.2
2026-06-21 00:40:57.385,1403,1129,1368.4,1427.2
2026-06-21 00:40:57.386,1403,1132.2,1366.7,1427.2
2026-06-21 00:40:57.399,1402.2,1133,1368.4,1427.2
2026-06-21 00:40:57.400,1395.8,1130.6,1366.7,1427.2
2026-06-21 00:40:57.401,1397.4,1132.2,1367.5,1428.8
2026-06-21 00:40:57.402,1399,1130.6,1366.7,1427.2
2026-06-21 00:40:57.403,1396.6,1133,1366.7,1427.2
2026-06-21 00:40:57.404,1399,1133,1366.7,1428.8
2026-06-21 00:40:57.405,1398.2,1130.6,1365.9,1427.2
2026-06-21 00:40:57.406,1397.4,1131.4,1367.5,1427.2
2026-06-21 00:40:57.407,1399,1129,1365.9,1427.2
2026-06-21 00:40:57.408,1396.6,1131.4,1365.1,1428
2026-06-21 00:40:57.409,1399,1132.2,1366.7,1428
2026-06-21 00:40:57.410,1399,1133,1366.7,1428.8
2026-06-21 00:40:57.411,1401.4,1129.8,1362.7,1428
2026-06-21 00:40:57.412,1398.2,1130.6,1362.7,1427.2
2026-06-21 00:40:57.413,1399.8,1130.6,1362.7,1427.2
2026-06-21 00:40:57.414,1399,1130.6,1364.3,1429.6
2026-06-21 00:40:57.415,1404.6,1125,1364.3,1428
2026-06-21 00:40:57.416,1402.2,1130.6,1362.7,1428
2026-06-21 00:40:57.417,1403,1128.2,1362.7,1430.4
2026-06-21 00:40:57.418,1403,1129.8,1365.9,1429.6
2026-06-21 00:40:57.419,1403,1130.6,1365.1,1428.8
2026-06-21 00:40:57.420,1403,1129,1365.9,1428
2026-06-21 00:40:57.421,1404.6,1131.4,1365.9,1428.8
2026-06-21 00:40:57.422,1403,1129,1366.7,1430.4
2026-06-21 00:40:57.423,1403.8,1130.6,1365.9,1430.4
2026-06-21 00:40:57.424,1403,1129,1365.9,1430.4
2026-06-21 00:40:57.425,1402.2,1129,1365.1,1429.6
2026-06-21 00:40:57.426,1402.2,1131.4,1363.5,1428.8
2026-06-21 00:40:57.427,1403,1126.6,1368.4,1427.2
2026-06-21 00:40:57.428,1405.4,1129,1365.9,1429.6
2026-06-21 00:40:57.429,1402.2,1131.4,1365.9,1430.4
2026-06-21 00:40:57.430,1403.8,1131.4,1366.7,1429.6
2026-06-21 00:40:57.431,1405.4,1129,1365.1,1430.4
2026-06-21 00:40:57.432,1403,1131.4,1363.5,1428.8
2026-06-21 00:40:57.433,1403,1130.6,1366.7,1427.2
2026-06-21 00:40:57.434,1402.2,1129,1367.5,1427.2
2026-06-21 00:40:57.435,1399,1130.6,1366.7,1427.2
2026-06-21 00:40:57.436,1403,1132.2,1365.1,1429.6
2026-06-21 00:40:57.437,1399,1131.4,1365.1,1428.8
2026-06-21 00:40:57.438,1403,1130.6,1366.7,1428.8
2026-06-21 00:40:57.439,1406.2,1129,1365.9,1431.2
2026-06-21 00:40:57.440,1405.4,1126.6,1365.1,1428
2026-06-21 00:40:57.441,1403.8,1131.4,1366.7,1427.2
2026-06-21 00:40:57.442,1403,1129,1366.7,1427.2
2026-06-21 00:40:57.443,1404.6,1129,1365.9,1427.2
2026-06-21 00:40:57.444,1404.6,1129,1368.4,1428.8
2026-06-21 00:40:57.445,1401.4,1129,1367.5,1428.8
2026-06-21 00:40:57.446,1402.2,1133,1368.4,1427.2
2026-06-21 00:40:57.447,1403,1130.6,1364.3,1426.4
2026-06-21 00:40:57.448,1399,1132.2,1365.9,1428.8
2026-06-21 00:40:57.437,1399.8,1129.8,1368.4,1427.2
2026-06-21 00:40:57.438,1395.8,1133,1365.1,1427.2
2026-06-21 00:40:57.439,1394.9,1130.6,1366.7,1429.6
2026-06-21 00:40:57.440,1395.8,1129,1366.7,1427.2
2026-06-21 00:40:57.441,1397.4,1132.2,1366.7,1429.6
2026-06-21 00:40:57.442,1399,1126.6,1366.7,1430.4
2026-06-21 00:40:57.443,1396.6,1132.2,1368.4,1427.2
2026-06-21 00:40:57.444,1396.6,1132.2,1367.5,1430.4
2026-06-21 00:40:57.445,1396.6,1131.4,1366.7,1428.8
2026-06-21 00:40:57.446,1401.4,1131.4,1366.7,1429.6
2026-06-21 00:40:57.447,1403,1130.6,1365.1,1428
2026-06-21 00:40:57.448,1401.4,1130.6,1365.9,1430.4
2026-06-21 00:40:57.449,1399,1126.6,1360.3,1429.6
2026-06-21 00:40:57.450,1399.8,1133,1365.1,1430.4
2026-06-21 00:40:57.451,1399.8,1133,1365.1,1428
2026-06-21 00:40:57.452,1399.8,1133,1364.3,1427.2
2026-06-21 00:40:57.453,1399.8,1130.6,1364.3,1429.6
2026-06-21 00:40:57.454,1401.4,1126.6,1365.9,1429.6
2026-06-21 00:40:57.455,1405.4,1130.6,1365.1,1429.6
2026-06-21 00:40:57.456,1403.8,1129.8,1365.9,1428
2026-06-21 00:40:57.457,1400.6,1125.8,1366.7,1430.4
2026-06-21 00:40:57.458,1403,1125.8,1362.7,1430.4
2026-06-21 00:40:57.459,1403.8,1126.6,1363.5,1429.6
2026-06-21 00:40:57.460,1401.4,1129,1364.3,1428
2026-06-21 00:40:57.461,1406.2,1126.6,1366.7,1429.6
2026-06-21 00:40:57.462,1403,1130.6,1365.9,1427.2
2026-06-21 00:40:57.463,1399.8,1133,1365.9,1429.6
2026-06-21 00:40:57.464,1403,1129.8,1365.1,1428
2026-06-21 00:40:57.465,1403.8,1130.6,1366.7,1430.4
2026-06-21 00:40:57.466,1403,1131.4,1365.9,1430.4
2026-06-21 00:40:57.467,1401.4,1131.4,1365.1,1429.6
2026-06-21 00:40:57.468,1401.4,1129,1365.9,1428
2026-06-21 00:40:57.469,1403,1126.6,1365.9,1428
2026-06-21 00:40:57.470,1402.2,1132.2,1364.3,1428.8
2026-06-21 00:40:57.471,1403,1128.2,1366.7,1428
2026-06-21 00:40:57.472,1399.8,1129,1366.7,1428.8
2026-06-21 00:40:57.473,1403.8,1132.2,1365.9,1430.4
2026-06-21 00:40:57.474,1403,1129.8,1365.9,1428.8
2026-06-21 00:40:57.475,1405.4,1130.6,1366.7,1428
2026-06-21 00:40:57.476,1403.8,1131.4,1365.1,1427.2
2026-06-21 00:40:57.477,1401.4,1131.4,1364.3,1430.4
2026-06-21 00:40:57.478,1404.6,1130.6,1366.7,1429.6
2026-06-21 00:40:57.479,1399.8,1129.8,1366.7,1426.4
2026-06-21 00:40:57.480,1403,1130.6,1366.7,1427.2
2026-06-21 00:40:57.481,1406.2,1131.4,1367.5,1427.2
2026-06-21 00:40:57.482,1403,1133,1365.9,1427.2
2026-06-21 00:40:57.483,1403,1126.6,1364.3,1428
2026-06-21 00:40:57.484,1400.6,1129,1365.9,1428
2026-06-21 00:40:57.485,1404.6,1131.4,1366.7,1427.2
2026-06-21 00:40:57.486,1402.2,1130.6,1366.7,1427.2
2026-06-21 00:40:57.498,1403,1129,1366.7,1428
2026-06-21 00:40:57.499,1395.8,1130.6,1366.7,1428
2026-06-21 00:40:57.500,1394.9,1132.2,1366.7,1429.6
2026-06-21 00:40:57.501,1397.4,1132.2,1366.7,1430.4
2026-06-21 00:40:57.502,1396.6,1129,1366.7,1429.6
2026-06-21 00:40:57.503,1397.4,1130.6,1366.7,1431.2
2026-06-21 00:40:57.504,1399,1132.2,1366.7,1428.8
2026-06-21 00:40:57.505,1395.8,1129,1366.7,1427.2
2026-06-21 00:40:57.506,1397.4,1129.8,1366.7,1428
2026-06-21 00:40:57.507,1399,1130.6,1366.7,1429.6
2026-06-21 00:40:57.508,1401.4,1132.2,1365.9,1428.8
2026-06-21 00:40:57.509,1397.4,1131.4,1369.2,1428.8
2026-06-21 00:40:57.510,1399.8,1129.8,1362.7,1429.6
2026-06-21 00:40:57.511,1399,1129,1362.7,1430.4
2026-06-21 00:40:57.512,1403,1133,1362.7,1428
2026-06-21 00:40:57.513,1399.8,1132.2,1362.7,1428.8
2026-06-21 00:40:57.514,1399,1128.2,1364.3,1430.4
2026-06-21 00:40:57.515,1403,1126.6,1364.3,1433.6
2026-06-21 00:40:57.516,1403,1130.6,1365.1,1431.2
2026-06-21 00:40:57.517,1399.8,1128.2,1362.7,1434.4
2026-06-21 00:40:57.518,1404.6,1129,1365.9,1432
2026-06-21 00:40:57.519,1403,1130.6,1365.1,1432
2026-06-21 00:40:57.520,1402.2,1129,1366.7,1431.2
2026-06-21 00:40:57.521,1401.4,1130.6,1366.7,1432
2026-06-21 00:40:57.522,1403,1132.2,1365.9,1432
2026-06-21 00:40:57.523,1402.2,1129,1365.9,1433.6
2026-06-21 00:40:57.524,1402.2,1132.2,1365.9,1431.2
2026-06-21 00:40:57.525,1403,1129.8,1366.7,1428.8
2026-06-21 00:40:57.526,1403,1126.6,1366.7,1429.6
2026-06-21 00:40:57.527,1403,1130.6,1365.9,1433.6
2026-06-21 00:40:57.528,1403.8,1129,1366.7,1432
2026-06-21 00:40:57.529,1403,1126.6,1366.7,1429.6
2026-06-21 00:40:57.530,1402.2,1130.6,1366.7,1427.2
2026-06-21 00:40:57.531,1403,1129,1365.1,1430.4
2026-06-21 00:40:57.532,1403,1131.4,1365.1,1428.8
2026-06-21 00:40:57.533,1404.6,1133,1364.3,1430.4
2026-06-21 00:40:57.534,1403,1130.6,1366.7,1432
2026-06-21 00:40:57.535,1399.8,1129,1366.7,1432
2026-06-21 00:40:57.536,1402.2,1129,1365.9,1430.4
2026-06-21 00:40:57.537,1403,1130.6,1365.9,1429.6
2026-06-21 00:40:57.538,1399.8,1129,1368.4,1429.6
2026-06-21 00:40:57.539,1402.2,1125.8,1366.7,1427.2
2026-06-21 00:40:57.540,1402.2,1128.2,1365.1,1425.6
2026-06-21 00:40:57.541,1402.2,1132.2,1365.1,1427.2
2026-06-21 00:40:57.542,1402.2,1131.4,1367.5,1427.2
2026-06-21 00:40:57.543,1404.6,1130.6,1365.9,1426.4
2026-06-21 00:40:57.544,1403,1132.2,1365.9,1427.2
2026-06-21 00:40:57.545,1403,1132.2,1366.7,1427.2
2026-06-21 00:40:57.546,1402.2,1131.4,1366.7,1427.2
2026-06-21 00:40:57.547,1402.2,1129,1366.7,1428.8
2026-06-21 00:40:57.539,1399,1129,1366.7,1428
2026-06-21 00:40:57.540,1394.9,1131.4,1365.9,1428
2026-06-21 00:40:57.541,1395.8,1132.2,1368.4,1427.2
2026-06-21 00:40:57.542,1397.4,1129.8,1365.9,1428.8
2026-06-21 00:40:57.543,1399,1131.4,1367.5,1429.6
2026-06-21 00:40:57.544,1397.4,1131.4,1366.7,1428.8
2026-06-21 00:40:57.545,1397.4,1129,1366.7,1428
2026-06-21 00:40:57.546,1399,1132.2,1365.1,1428.8
2026-06-21 00:40:57.547,1397.4,1132.2,1366.7,1428.8
2026-06-21 00:40:57.548,1399,1131.4,1365.1,1427.2
2026-06-21 00:40:57.549,1397.4,1131.4,1366.7,1428.8
2026-06-21 00:40:57.550,1399,1131.4,1365.9,1430.4
2026-06-21 00:40:57.551,1403,1129,1366.7,1429.6
2026-06-21 00:40:57.552,1399.8,1129.8,1364.3,1428.8
2026-06-21 00:40:57.553,1401.4,1129,1364.3,1434.4
2026-06-21 00:40:57.554,1399.8,1131.4,1364.3,1430.4
2026-06-21 00:40:57.555,1401.4,1125.8,1362.7,1428
2026-06-21 00:40:57.556,1403.8,1126.6,1365.1,1429.6
2026-06-21 00:40:57.557,1402.2,1129,1365.9,1428.8
2026-06-21 00:40:57.558,1403,1129,1365.9,1429.6
2026-06-21 00:40:57.559,1401.4,1129,1364.3,1428.8
2026-06-21 00:40:57.560,1403.8,1123.4,1364.3,1428.8
2026-06-21 00:40:57.561,1404.6,1125.8,1366.7,1427.2
2026-06-21 00:40:57.562,1403,1126.6,1365.1,1429.6
2026-06-21 00:40:57.563,1401.4,1131.4,1366.7,1430.4
2026-06-21 00:40:57.564,1403,1131.4,1365.9,1428
2026-06-21 00:40:57.565,1403.8,1126.6,1365.9,1427.2
2026-06-21 00:40:57.566,1402.2,1126.6,1366.7,1428
2026-06-21 00:40:57.567,1403.8,1126.6,1368.4,1428
2026-06-21 00:40:57.568,1403,1128.2,1365.1,1430.4
2026-06-21 00:40:57.569,1403,1129,1362.7,1428
2026-06-21 00:40:57.570,1403,1131.4,1365.1,1428
2026-06-21 00:40:57.571,1401.4,1132.2,1363.5,1428
2026-06-21 00:40:57.572,1403,1131.4,1365.9,1428.8
2026-06-21 00:40:57.573,1401.4,1129,1366.7,1430.4
2026-06-21 00:40:57.574,1405.4,1129,1368.4,1427.2
2026-06-21 00:40:57.575,1403,1130.6,1366.7,1427.2
2026-06-21 00:40:57.576,1403,1129,1365.9,1431.2
2026-06-21 00:40:57.577,1403,1132.2,1364.3,1430.4
2026-06-21 00:40:57.578,1403.8,1132.2,1365.1,1430.4
2026-06-21 00:40:57.579,1399,1128.2,1365.1,1427.2
2026-06-21 00:40:57.580,1403.8,1131.4,1365.1,1428.8
2026-06-21 00:40:57.581,1403,1132.2,1364.3,1427.2
2026-06-21 00:40:57.582,1403,1130.6,1366.7,1427.2
2026-06-21 00:40:57.583,1403.8,1129,1366.7,1427.2
2026-06-21 00:40:57.584,1402.2,1129,1365.9,1427.2
2026-06-21 00:40:57.585,1403,1128.2,1368.4,1428
2026-06-21 00:40:57.586,1403,1129,1368.4,1427.2
2026-06-21 00:40:57.587,1403,1132.2,1366.7,1428
2026-06-21 00:40:57.588,1402.2,1130.6,1366.7,1427.2
2026-06-21 00:40:57.599,1402.2,1128.2,1365.1,1427.2
2026-06-21 00:40:57.600,1399,1129.8,1366.7,1427.2
2026-06-21 00:40:57.601,1394.9,1128.2,1366.7,1426.4
2026-06-21 00:40:57.602,1397.4,1133,1368.4,1427.2
2026-06-21 00:40:57.603,1397.4,1133,1367.5,1428.8
2026-06-21 00:40:57.604,1397.4,1130.6,1366.7,1427.2
2026-06-21 00:40:57.605,1398.2,1132.2,1370,1427.2
2026-06-21 00:40:57.606,1397.4,1130.6,1365.9,1428.8
2026-06-21 00:40:57.607,1399,1129,1365.9,1430.4
2026-06-21 00:40:57.608,1399,1129,1366.7,1428.8
2026-06-21 00:40:57.609,1397.4,1131.4,1366.7,1430.4
2026-06-21 00:40:57.610,1399,1132.2,1366.7,1428
2026-06-21 00:40:57.611,1399,1128.2,1367.5,1428
2026-06-21 00:40:57.612,1404.6,1129,1362.7,1428.8
2026-06-21 00:40:57.613,1402.2,1132.2,1364.3,1428.8
2026-06-21 00:40:57.614,1399.8,1129,1364.3,1428.8
2026-06-21 00:40:57.615,1401.4,1125,1363.5,1427.2
2026-06-21 00:40:57.616,1403,1128.2,1365.1,1428.8
2026-06-21 00:40:57.617,1403,1128.2,1364.3,1431.2
2026-06-21 00:40:57.618,1404.6,1129,1365.9,1433.6
2026-06-21 00:40:57.619,1402.2,1129,1365.1,1428.8
2026-06-21 00:40:57.620,1402.2,1129,1366.7,1429.6
2026-06-21 00:40:57.621,1405.4,1129,1362.7,1428
2026-06-21 00:40:57.622,1399.8,1129,1365.9,1428
2026-06-21 00:40:57.623,1401.4,1129,1365.9,1430.4
2026-06-21 00:40:57.624,1403,1133,1365.9,1428.8
2026-06-21 00:40:57.625,1403,1133,1365.9,1429.6
2026-06-21 00:40:57.626,1404.6,1129,1365.1,1429.6
2026-06-21 00:40:57.627,1402.2,1126.6,1361.9,1428.8
2026-06-21 00:40:57.628,1399.8,1129,1365.9,1428
2026-06-21 00:40:57.629,1403,1129,1366.7,1430.4
