# participant=P001 | sex=male | age=22 | weight_kg=68 | height_cm=175
# exercise=stair_descent | trial_no=2 | label=stair_descent | session=2026-06-21T17:47:57.974Z | tz=Asia/Calcutta
datetime_local,muscle1_raw_mV,muscle2_raw_mV,muscle3_raw_mV,muscle4_raw_mV
2026-06-21 23:17:57.947,,1248.3,,
2026-06-21 23:17:57.948,,1251.5,,
2026-06-21 23:17:57.949,,1251.5,,
2026-06-21 23:17:57.949,1502.1,1249.1,,
2026-06-21 23:17:57.950,1501.3,1251.5,,
2026-06-21 23:17:57.951,1498.9,1249.9,,
2026-06-21 23:17:57.952,1498.9,1251.5,,
2026-06-21 23:17:57.953,1501.3,1251.5,,
2026-06-21 23:17:57.954,1501.3,1251.5,,
2026-06-21 23:17:57.955,1501.3,1249.1,,
2026-06-21 23:17:57.956,1501.3,1251.5,,
2026-06-21 23:17:57.957,1501.3,1250.7,,
2026-06-21 23:17:57.958,1502.1,1250.7,,
2026-06-21 23:17:57.959,1502.9,1249.1,,
2026-06-21 23:17:57.960,1501.3,1249.9,,
2026-06-21 23:17:57.961,1501.3,1252.3,,
2026-06-21 23:17:57.962,1502.9,1249.1,,
2026-06-21 23:17:57.963,1502.1,1252.3,,
2026-06-21 23:17:57.964,1502.9,1252.3,,
2026-06-21 23:17:57.965,1502.1,1250.7,,1510.2
2026-06-21 23:17:57.966,1505.3,1253.9,,1511.8
2026-06-21 23:17:57.967,1502.1,1249.9,,1511
2026-06-21 23:17:57.968,1507,1249.9,,1511.8
2026-06-21 23:17:57.969,1502.9,1251.5,,1511
2026-06-21 23:17:57.970,1502.9,1251.5,,1511.8
2026-06-21 23:17:57.971,1502.1,1251.5,,1511.8
2026-06-21 23:17:57.972,1505.3,1249.9,,1511.8
2026-06-21 23:17:57.973,1502.1,1253.9,,1512.6
2026-06-21 23:17:57.974,1501.3,1253.9,,1513.4
2026-06-21 23:17:57.975,1502.1,1252.3,,1513.4
2026-06-21 23:17:57.976,1506.2,1251.5,,1513.4
2026-06-21 23:17:57.977,1504.5,1251.5,1465.1,1513.4
2026-06-21 23:17:57.978,1502.1,1250.7,1473.9,1514.2
2026-06-21 23:17:57.979,1503.7,1251.5,1473.1,1512.6
2026-06-21 23:17:57.980,1507,1251.5,1473.1,1512.6
2026-06-21 23:17:57.981,1505.3,1251.5,1473.9,1514.2
2026-06-21 23:17:57.982,1501.3,1254.7,1472.3,1513.4
2026-06-21 23:17:57.983,1504.5,1251.5,1475.5,1514.2
2026-06-21 23:17:57.984,1505.3,1251.5,1473.1,1512.6
2026-06-21 23:17:57.985,1504.5,1252.3,1476.3,1514.2
2026-06-21 23:17:57.986,1506.2,1251.5,1476.3,1514.2
2026-06-21 23:17:57.987,1507,1255.5,1476.3,1514.2
2026-06-21 23:17:57.988,1506.2,1251.5,1475.5,1511.8
2026-06-21 23:17:57.989,1502.9,1251.5,1476.3,1513.4
2026-06-21 23:17:57.990,1501.3,1251.5,1475.5,1513.4
2026-06-21 23:17:57.991,1505.3,1252.3,1475.5,1514.2
2026-06-21 23:17:57.992,1502.1,1251.5,1475.5,1513.4
2026-06-21 23:17:57.993,1502.1,1253.9,1477.1,1511.8
2026-06-21 23:17:57.994,1504.5,1254.7,1476.3,1513.4
2026-06-21 23:17:57.995,1506.2,1253.9,1476.3,1514.2
2026-06-21 23:17:57.996,1502.1,1248.3,1477.1,1514.2
2026-06-21 23:17:57.997,1502.9,1248.3,1477.1,1514.2
2026-06-21 23:17:57.998,1504.5,1248.3,1477.1,1513.4
2026-06-21 23:17:57.984,1502.9,1248.3,1477.9,1514.2
2026-06-21 23:17:57.985,1502.1,1249.1,1475.5,1514.2
2026-06-21 23:17:57.986,1500.5,1249.9,1476.3,1514.2
2026-06-21 23:17:57.987,1500.5,1250.7,1477.1,1511.8
2026-06-21 23:17:57.988,1501.3,1248.3,1476.3,1514.2
2026-06-21 23:17:57.989,1501.3,1251.5,1476.3,1512.6
2026-06-21 23:17:57.990,1501.3,1249.1,1475.5,1514.2
2026-06-21 23:17:57.991,1501.3,1255.5,1476.3,1514.2
2026-06-21 23:17:57.992,1501.3,1249.9,1475.5,1514.2
2026-06-21 23:17:57.993,1502.9,1251.5,1473.9,1512.6
2026-06-21 23:17:57.994,1500.5,1248.3,1476.3,1514.2
2026-06-21 23:17:57.995,1501.3,1249.1,1473.1,1514.2
2026-06-21 23:17:57.996,1501.3,1249.9,1477.1,1514.2
2026-06-21 23:17:57.997,1501.3,1251.5,1475.5,1511.8
2026-06-21 23:17:57.998,1504.5,1250.7,1477.1,1514.2
2026-06-21 23:17:57.999,1501.3,1252.3,1475.5,1515.8
2026-06-21 23:17:58.000,1502.9,1249.9,1476.3,1511
2026-06-21 23:17:58.001,1502.9,1251.5,1477.9,1511
2026-06-21 23:17:58.002,1502.9,1249.9,1475.5,1511
2026-06-21 23:17:58.003,1502.1,1250.7,1476.3,1513.4
2026-06-21 23:17:58.004,1501.3,1251.5,1476.3,1507.8
2026-06-21 23:17:58.005,1501.3,1250.7,1475.5,1512.6
2026-06-21 23:17:58.006,1503.7,1251.5,1476.3,1511
2026-06-21 23:17:58.007,1502.9,1252.3,1476.3,1511.8
2026-06-21 23:17:58.008,1502.1,1251.5,1476.3,1511.8
2026-06-21 23:17:58.009,1502.1,1252.3,1475.5,1513.4
2026-06-21 23:17:58.010,1502.9,1254.7,1476.3,1514.2
2026-06-21 23:17:58.011,1502.9,1252.3,1473.9,1514.2
2026-06-21 23:17:58.012,1504.5,1248.3,1473.9,1514.2
2026-06-21 23:17:58.013,1502.1,1251.5,1474.7,1513.4
2026-06-21 23:17:58.014,1504.5,1251.5,1473.1,1513.4
2026-06-21 23:17:58.015,1506.2,1252.3,1473.9,1514.2
2026-06-21 23:17:58.016,1504.5,1251.5,1473.1,1514.2
2026-06-21 23:17:58.017,1504.5,1254.7,1473.9,1513.4
2026-06-21 23:17:58.018,1502.9,1251.5,1472.3,1514.2
2026-06-21 23:17:58.019,1504.5,1251.5,1475.5,1513.4
2026-06-21 23:17:58.020,1502.1,1250.7,1473.9,1514.2
2026-06-21 23:17:58.021,1505.3,1252.3,1474.7,1515
2026-06-21 23:17:58.022,1506.2,1251.5,1475.5,1512.6
2026-06-21 23:17:58.023,1502.9,1253.1,1473.9,1514.2
2026-06-21 23:17:58.024,1502.9,1251.5,1474.7,1513.4
2026-06-21 23:17:58.025,1502.1,1251.5,1475.5,1514.2
2026-06-21 23:17:58.026,1502.1,1251.5,1473.9,1514.2
2026-06-21 23:17:58.027,1502.1,1251.5,1473.9,1514.2
2026-06-21 23:17:58.028,1502.9,1250.7,1476.3,1515
2026-06-21 23:17:58.029,1502.9,1252.3,1474.7,1514.2
2026-06-21 23:17:58.030,1502.9,1254.7,1476.3,1512.6
2026-06-21 23:17:58.031,1502.9,1253.9,1474.7,1514.2
2026-06-21 23:17:58.032,1502.1,1246.7,1477.1,1515.8
2026-06-21 23:17:58.033,1506.2,1249.9,1480.4,1514.2
2026-06-21 23:17:58.047,1502.1,1251.5,1480.4,1514.2
2026-06-21 23:17:58.048,1499.7,1249.1,1470.7,1515
2026-06-21 23:17:58.049,1501.3,1251.5,1469.9,1514.2
2026-06-21 23:17:58.050,1498.9,1252.3,1473.9,1514.2
2026-06-21 23:17:58.051,1501.3,1249.9,1473.1,1514.2
2026-06-21 23:17:58.052,1501.3,1248.3,1472.3,1511.8
2026-06-21 23:17:58.053,1499.7,1249.9,1473.1,1511.8
2026-06-21 23:17:58.054,1501.3,1249.9,1473.9,1513.4
2026-06-21 23:17:58.055,1502.9,1249.1,1476.3,1515.8
2026-06-21 23:17:58.056,1502.1,1248.3,1476.3,1513.4
2026-06-21 23:17:58.057,1502.1,1250.7,1473.1,1514.2
2026-06-21 23:17:58.058,1502.9,1250.7,1476.3,1513.4
2026-06-21 23:17:58.059,1501.3,1249.9,1476.3,1513.4
2026-06-21 23:17:58.060,1501.3,1251.5,1474.7,1514.2
2026-06-21 23:17:58.061,1505.3,1251.5,1474.7,1514.2
2026-06-21 23:17:58.062,1503.7,1249.9,1475.5,1514.2
2026-06-21 23:17:58.063,1502.1,1248.3,1476.3,1511
2026-06-21 23:17:58.064,1502.1,1253.9,1476.3,1507.8
2026-06-21 23:17:58.065,1503.7,1251.5,1474.7,1509.4
2026-06-21 23:17:58.066,1502.1,1251.5,1476.3,1511
2026-06-21 23:17:58.067,1503.7,1251.5,1476.3,1513.4
2026-06-21 23:17:58.068,1506.2,1252.3,1474.7,1513.4
2026-06-21 23:17:58.069,1502.9,1248.3,1477.1,1514.2
2026-06-21 23:17:58.070,1505.3,1251.5,1473.9,1511.8
2026-06-21 23:17:58.071,1502.9,1251.5,1477.9,1514.2
2026-06-21 23:17:58.072,1505.3,1251.5,1477.1,1512.6
2026-06-21 23:17:58.073,1501.3,1253.1,1477.9,1512.6
2026-06-21 23:17:58.074,1503.7,1249.9,1475.5,1511.8
2026-06-21 23:17:58.075,1502.1,1250.7,1469.9,1514.2
2026-06-21 23:17:58.076,1502.9,1249.9,1473.9,1514.2
2026-06-21 23:17:58.077,1505.3,1250.7,1474.7,1514.2
2026-06-21 23:17:58.078,1505.3,1251.5,1473.1,1514.2
2026-06-21 23:17:58.079,1503.7,1250.7,1473.9,1513.4
2026-06-21 23:17:58.080,1504.5,1249.1,1474.7,1514.2
2026-06-21 23:17:58.081,1502.9,1252.3,1474.7,1513.4
2026-06-21 23:17:58.082,1502.9,1252.3,1475.5,1511.8
2026-06-21 23:17:58.083,1502.9,1252.3,1473.9,1514.2
2026-06-21 23:17:58.084,1504.5,1251.5,1473.9,1513.4
2026-06-21 23:17:58.085,1506.2,1253.9,1475.5,1512.6
2026-06-21 23:17:58.086,1504.5,1251.5,1475.5,1514.2
2026-06-21 23:17:58.087,1502.1,1252.3,1474.7,1514.2
2026-06-21 23:17:58.088,1501.3,1251.5,1477.9,1513.4
2026-06-21 23:17:58.089,1507,1251.5,1479.6,1512.6
2026-06-21 23:17:58.090,1506.2,1250.7,1477.1,1514.2
2026-06-21 23:17:58.091,1505.3,1251.5,1474.7,1514.2
2026-06-21 23:17:58.092,1502.1,1251.5,1469.1,1515
2026-06-21 23:17:58.093,1503.7,1251.5,1472.3,1514.2
2026-06-21 23:17:58.094,1502.9,1252.3,1473.9,1514.2
2026-06-21 23:17:58.095,1502.9,1248.3,1475.5,1514.2
2026-06-21 23:17:58.096,1504.5,1249.9,1474.7,1514.2
2026-06-21 23:17:58.082,1508.6,1249.9,1477.1,1514.2
2026-06-21 23:17:58.083,1501.3,1249.9,1473.9,1513.4
2026-06-21 23:17:58.084,1501.3,1249.9,1475.5,1514.2
2026-06-21 23:17:58.085,1501.3,1250.7,1473.9,1514.2
2026-06-21 23:17:58.086,1500.5,1249.1,1474.7,1514.2
2026-06-21 23:17:58.087,1500.5,1251.5,1475.5,1514.2
2026-06-21 23:17:58.088,1501.3,1251.5,1477.9,1515.8
2026-06-21 23:17:58.089,1502.9,1250.7,1474.7,1514.2
2026-06-21 23:17:58.090,1501.3,1251.5,1477.1,1514.2
2026-06-21 23:17:58.091,1501.3,1249.9,1475.5,1515.8
2026-06-21 23:17:58.092,1501.3,1248.3,1476.3,1513.4
2026-06-21 23:17:58.093,1502.1,1250.7,1476.3,1514.2
2026-06-21 23:17:58.094,1502.9,1250.7,1476.3,1514.2
2026-06-21 23:17:58.095,1505.3,1251.5,1473.9,1514.2
2026-06-21 23:17:58.096,1501.3,1252.3,1475.5,1513.4
2026-06-21 23:17:58.097,1502.9,1251.5,1474.7,1512.6
2026-06-21 23:17:58.098,1504.5,1251.5,1469.9,1514.2
2026-06-21 23:17:58.099,1501.3,1254.7,1473.9,1511
2026-06-21 23:17:58.100,1503.7,1249.9,1477.1,1511.8
2026-06-21 23:17:58.101,1502.1,1251.5,1481.2,1511
2026-06-21 23:17:58.102,1502.1,1252.3,1477.9,1514.2
2026-06-21 23:17:58.103,1504.5,1251.5,1477.9,1511.8
2026-06-21 23:17:58.104,1503.7,1253.9,1475.5,1511.8
2026-06-21 23:17:58.105,1502.1,1253.1,1473.9,1511
2026-06-21 23:17:58.106,1502.1,1251.5,1472.3,1514.2
2026-06-21 23:17:58.107,1502.9,1251.5,1475.5,1512.6
2026-06-21 23:17:58.108,1502.1,1253.1,1474.7,1510.2
2026-06-21 23:17:58.109,1506.2,1250.7,1477.9,1513.4
2026-06-21 23:17:58.110,1504.5,1251.5,1473.9,1512.6
2026-06-21 23:17:58.111,1503.7,1251.5,1473.1,1511.8
2026-06-21 23:17:58.112,1502.9,1252.3,1475.5,1513.4
2026-06-21 23:17:58.113,1502.1,1251.5,1477.9,1513.4
2026-06-21 23:17:58.114,1502.1,1251.5,1477.9,1510.2
2026-06-21 23:17:58.115,1502.9,1252.3,1473.9,1514.2
2026-06-21 23:17:58.116,1502.9,1251.5,1473.9,1513.4
2026-06-21 23:17:58.117,1504.5,1251.5,1473.9,1514.2
2026-06-21 23:17:58.118,1502.1,1251.5,1469.1,1511.8
2026-06-21 23:17:58.119,1502.1,1252.3,1469.1,1513.4
2026-06-21 23:17:58.120,1504.5,1249.9,1469.1,1511.8
2026-06-21 23:17:58.121,1502.9,1252.3,1473.1,1513.4
2026-06-21 23:17:58.122,1507,1253.1,1473.9,1514.2
2026-06-21 23:17:58.123,1502.1,1251.5,1474.7,1512.6
2026-06-21 23:17:58.124,1504.5,1251.5,1473.9,1514.2
2026-06-21 23:17:58.125,1502.9,1251.5,1475.5,1511.8
2026-06-21 23:17:58.126,1505.3,1251.5,1476.3,1512.6
2026-06-21 23:17:58.127,1501.3,1252.3,1476.3,1513.4
2026-06-21 23:17:58.128,1502.1,1251.5,1473.9,1514.2
2026-06-21 23:17:58.129,1502.9,1251.5,1475.5,1515.8
2026-06-21 23:17:58.130,1505.3,1247.5,1469.1,1514.2
2026-06-21 23:17:58.131,1502.9,1249.9,1469.9,1514.2
2026-06-21 23:17:58.145,1504.5,1249.9,1471.5,1513.4
2026-06-21 23:17:58.146,1501.3,1251.5,1469.1,1515.8
2026-06-21 23:17:58.147,1500.5,1251.5,1477.1,1514.2
2026-06-21 23:17:58.148,1501.3,1250.7,1482.8,1514.2
2026-06-21 23:17:58.149,1501.3,1252.3,1488.4,1517.4
2026-06-21 23:17:58.150,1501.3,1248.3,1487.6,1514.2
2026-06-21 23:17:58.151,1501.3,1250.7,1487.6,1514.2
2026-06-21 23:17:58.152,1500.5,1251.5,1483.6,1514.2
2026-06-21 23:17:58.153,1501.3,1252.3,1472.3,1511
2026-06-21 23:17:58.154,1501.3,1252.3,1471.5,1511
2026-06-21 23:17:58.155,1501.3,1250.7,1469.1,1514.2
2026-06-21 23:17:58.156,1501.3,1251.5,1469.9,1514.2
2026-06-21 23:17:58.157,1500.5,1251.5,1473.1,1514.2
2026-06-21 23:17:58.158,1502.1,1250.7,1473.9,1511.8
2026-06-21 23:17:58.159,1501.3,1249.1,1473.1,1513.4
2026-06-21 23:17:58.160,1501.3,1251.5,1474.7,1514.2
2026-06-21 23:17:58.161,1501.3,1250.7,1473.1,1512.6
2026-06-21 23:17:58.162,1501.3,1251.5,1476.3,1511.8
2026-06-21 23:17:58.163,1502.1,1252.3,1474.7,1511
2026-06-21 23:17:58.164,1502.1,1253.9,1475.5,1511.8
2026-06-21 23:17:58.165,1502.1,1252.3,1476.3,1512.6
2026-06-21 23:17:58.166,1507,1249.1,1477.1,1510.2
2026-06-21 23:17:58.167,1504.5,1252.3,1479.6,1511
2026-06-21 23:17:58.168,1502.9,1253.9,1477.1,1514.2
2026-06-21 23:17:58.169,1504.5,1253.9,1476.3,1511.8
2026-06-21 23:17:58.170,1503.7,1252.3,1476.3,1512.6
2026-06-21 23:17:58.171,1502.9,1251.5,1476.3,1513.4
2026-06-21 23:17:58.172,1504.5,1251.5,1476.3,1511.8
2026-06-21 23:17:58.173,1502.9,1250.7,1476.3,1511.8
2026-06-21 23:17:58.174,1504.5,1252.3,1472.3,1512.6
2026-06-21 23:17:58.175,1502.9,1253.9,1473.9,1514.2
2026-06-21 23:17:58.176,1502.9,1251.5,1473.1,1514.2
2026-06-21 23:17:58.177,1506.2,1251.5,1472.3,1513.4
2026-06-21 23:17:58.178,1506.2,1252.3,1475.5,1515
2026-06-21 23:17:58.179,1502.9,1252.3,1476.3,1513.4
2026-06-21 23:17:58.180,1502.1,1249.1,1477.9,1512.6
2026-06-21 23:17:58.181,1507,1250.7,1477.9,1513.4
2026-06-21 23:17:58.182,1502.1,1249.9,1476.3,1514.2
2026-06-21 23:17:58.183,1506.2,1252.3,1474.7,1513.4
2026-06-21 23:17:58.184,1502.9,1251.5,1476.3,1514.2
2026-06-21 23:17:58.185,1502.9,1252.3,1469.9,1514.2
2026-06-21 23:17:58.186,1502.9,1251.5,1466.7,1514.2
2026-06-21 23:17:58.187,1501.3,1251.5,1472.3,1514.2
2026-06-21 23:17:58.188,1501.3,1251.5,1473.1,1513.4
2026-06-21 23:17:58.189,1503.7,1252.3,1473.1,1514.2
2026-06-21 23:17:58.190,1502.1,1248.3,1473.1,1514.2
2026-06-21 23:17:58.191,1502.9,1250.7,1476.3,1511
2026-06-21 23:17:58.192,1502.9,1249.9,1473.9,1513.4
2026-06-21 23:17:58.193,1502.1,1247.5,1472.3,1514.2
2026-06-21 23:17:58.194,1502.9,1249.1,1472.3,1514.2
2026-06-21 23:17:58.191,1501.3,1247.5,1477.9,1513.4
2026-06-21 23:17:58.192,1497.3,1246.7,1477.1,1514.2
2026-06-21 23:17:58.193,1501.3,1244.2,1474.7,1514.2
2026-06-21 23:17:58.194,1501.3,1248.3,1475.5,1515
2026-06-21 23:17:58.195,1501.3,1248.3,1474.7,1512.6
2026-06-21 23:17:58.196,1501.3,1247.5,1473.9,1513.4
2026-06-21 23:17:58.197,1500.5,1251.5,1476.3,1514.2
2026-06-21 23:17:58.198,1502.9,1249.9,1476.3,1514.2
2026-06-21 23:17:58.199,1502.1,1250.7,1475.5,1514.2
2026-06-21 23:17:58.200,1502.1,1251.5,1476.3,1515.8
2026-06-21 23:17:58.201,1502.9,1247.5,1475.5,1514.2
2026-06-21 23:17:58.202,1502.1,1249.9,1473.1,1514.2
2026-06-21 23:17:58.203,1502.1,1249.1,1474.7,1514.2
2026-06-21 23:17:58.204,1502.9,1249.9,1476.3,1513.4
2026-06-21 23:17:58.205,1505.3,1251.5,1477.1,1512.6
2026-06-21 23:17:58.206,1507,1249.9,1476.3,1514.2
2026-06-21 23:17:58.207,1502.1,1251.5,1477.1,
2026-06-21 23:17:58.208,1502.1,1252.3,1477.9,1514.2
2026-06-21 23:17:58.209,1505.3,1252.3,1476.3,1511
2026-06-21 23:17:58.210,1505.3,1250.7,1476.3,1511.8
2026-06-21 23:17:58.211,1505.3,1249.9,1475.5,1511.8
2026-06-21 23:17:58.212,1506.2,1252.3,1477.1,1512.6
2026-06-21 23:17:58.213,1502.1,1249.9,1475.5,1512.6
2026-06-21 23:17:58.214,1502.9,1251.5,1473.9,1511.8
2026-06-21 23:17:58.215,1504.5,1251.5,1475.5,1513.4
2026-06-21 23:17:58.216,1507,1252.3,1476.3,1514.2
2026-06-21 23:17:58.217,1502.9,1251.5,1473.1,1512.6
2026-06-21 23:17:58.218,1502.1,1249.9,1473.1,1512.6
2026-06-21 23:17:58.219,1503.7,1249.9,,1514.2
2026-06-21 23:17:58.220,1502.9,1254.7,1473.9,1514.2
2026-06-21 23:17:58.221,1506.2,1249.9,1472.3,1514.2
2026-06-21 23:17:58.222,1507,1251.5,1472.3,1514.2
2026-06-21 23:17:58.223,1507,1252.3,1473.9,1514.2
2026-06-21 23:17:58.224,1503.7,1252.3,1473.9,1514.2
2026-06-21 23:17:58.225,1503.7,1252.3,1475.5,1511.8
2026-06-21 23:17:58.226,1505.3,1252.3,1475.5,1515
2026-06-21 23:17:58.227,1504.5,1250.7,1473.9,1514.2
2026-06-21 23:17:58.228,1507,1252.3,1473.9,1514.2
2026-06-21 23:17:58.229,1506.2,1252.3,1475.5,1513.4
2026-06-21 23:17:58.230,1504.5,1252.3,1475.5,1514.2
2026-06-21 23:17:58.231,1506.2,1251.5,1473.9,1515.8
2026-06-21 23:17:58.232,1504.5,1250.7,1471.5,1513.4
2026-06-21 23:17:58.233,1501.3,1253.9,1473.1,1514.2
2026-06-21 23:17:58.234,1502.9,1251.5,1473.9,1514.2
2026-06-21 23:17:58.235,1502.9,1251.5,1476.3,1514.2
2026-06-21 23:17:58.236,1504.5,1252.3,1474.7,1514.2
2026-06-21 23:17:58.237,1507,1251.5,1474.7,1514.2
2026-06-21 23:17:58.238,1502.9,,1475.5,1514.2
2026-06-21 23:17:58.239,1504.5,1252.3,1475.5,1514.2
2026-06-21 23:17:58.240,1502.9,1248.3,1473.9,1514.2
2026-06-21 23:17:58.247,1498.9,1249.9,1473.9,1513.4
2026-06-21 23:17:58.248,1500.5,1249.9,1475.5,1515
2026-06-21 23:17:58.249,1501.3,1249.9,1474.7,1512.6
2026-06-21 23:17:58.250,1501.3,1249.1,1473.9,1514.2
2026-06-21 23:17:58.251,1502.1,1251.5,1474.7,1514.2
2026-06-21 23:17:58.252,1501.3,1251.5,1477.9,1514.2
2026-06-21 23:17:58.253,1501.3,1249.1,1477.9,1514.2
2026-06-21 23:17:58.254,1502.1,1249.9,1477.1,1515
2026-06-21 23:17:58.255,1501.3,1249.1,1476.3,1514.2
2026-06-21 23:17:58.256,1502.9,1251.5,1474.7,1513.4
2026-06-21 23:17:58.257,1501.3,1249.9,1476.3,1515.8
2026-06-21 23:17:58.258,1502.1,1250.7,1475.5,1514.2
2026-06-21 23:17:58.259,1502.1,1249.1,1476.3,1514.2
2026-06-21 23:17:58.260,1502.1,1250.7,1476.3,1511.8
2026-06-21 23:17:58.261,1502.9,1251.5,1476.3,1514.2
2026-06-21 23:17:58.262,1502.9,1251.5,1472.3,1514.2
2026-06-21 23:17:58.263,1503.7,1251.5,1477.1,1514.2
2026-06-21 23:17:58.264,1502.1,1250.7,1476.3,1514.2
2026-06-21 23:17:58.265,1501.3,1255.5,1477.1,1511
2026-06-21 23:17:58.266,1505.3,1252.3,1477.1,1511
2026-06-21 23:17:58.267,1502.9,1249.9,1477.1,1510.2
2026-06-21 23:17:58.268,1505.3,1251.5,1475.5,1511.8
2026-06-21 23:17:58.269,1503.7,1251.5,1477.9,1514.2
2026-06-21 23:17:58.270,1502.1,1249.1,1474.7,1510.2
2026-06-21 23:17:58.271,1502.1,1254.7,1475.5,1511.8
2026-06-21 23:17:58.272,1503.7,1250.7,1475.5,1511
2026-06-21 23:17:58.273,1502.9,1253.9,1474.7,1512.6
2026-06-21 23:17:58.274,1502.9,1252.3,1476.3,1514.2
2026-06-21 23:17:58.275,1503.7,1249.9,1476.3,1511.8
2026-06-21 23:17:58.276,1502.9,1251.5,1477.9,1512.6
2026-06-21 23:17:58.277,1502.9,1252.3,1474.7,1511.8
2026-06-21 23:17:58.278,1505.3,1250.7,1472.3,1513.4
2026-06-21 23:17:58.279,1506.2,1249.9,1469.1,1514.2
2026-06-21 23:17:58.280,1503.7,1251.5,1473.1,1514.2
2026-06-21 23:17:58.281,1504.5,1251.5,1475.5,1515
2026-06-21 23:17:58.282,1502.9,1248.3,1474.7,1514.2
2026-06-21 23:17:58.283,1504.5,1251.5,1475.5,1514.2
2026-06-21 23:17:58.284,1502.9,1249.9,1476.3,1515
2026-06-21 23:17:58.285,1505.3,1253.9,1473.1,1514.2
2026-06-21 23:17:58.286,1504.5,1252.3,1474.7,1514.2
2026-06-21 23:17:58.287,1503.7,1252.3,1474.7,1514.2
2026-06-21 23:17:58.288,1502.1,1251.5,1473.1,1514.2
2026-06-21 23:17:58.289,1502.1,1251.5,1474.7,1514.2
2026-06-21 23:17:58.290,1502.9,1252.3,1474.7,1513.4
2026-06-21 23:17:58.291,1504.5,1251.5,1475.5,1514.2
2026-06-21 23:17:58.292,1506.2,1251.5,1475.5,1511.8
2026-06-21 23:17:58.293,1502.9,1253.9,1473.9,1512.6
2026-06-21 23:17:58.294,1502.1,1250.7,1476.3,1513.4
2026-06-21 23:17:58.295,1502.1,,1475.5,1514.2
2026-06-21 23:17:58.296,1506.2,1247.5,1473.1,1513.4
2026-06-21 23:17:58.283,,1249.1,1475.5,1514.2
2026-06-21 23:17:58.286,1506.2,1249.1,1476.3,1514.2
2026-06-21 23:17:58.287,1502.1,1246.7,1479.6,1515.8
2026-06-21 23:17:58.288,1500.5,1249.1,1483.6,1514.2
2026-06-21 23:17:58.289,1501.3,1249.9,1482.8,1514.2
2026-06-21 23:17:58.290,1500.5,1250.7,1475.5,1514.2
2026-06-21 23:17:58.291,1501.3,1249.9,1474.7,1513.4
2026-06-21 23:17:58.292,1501.3,1251.5,1469.9,1513.4
2026-06-21 23:17:58.293,1501.3,1249.1,1469.1,1513.4
2026-06-21 23:17:58.294,1502.1,1252.3,1473.1,1514.2
2026-06-21 23:17:58.295,1502.1,1253.9,1473.9,1514.2
2026-06-21 23:17:58.296,1501.3,1249.9,1473.9,1514.2
2026-06-21 23:17:58.297,1501.3,1249.9,1475.5,1513.4
2026-06-21 23:17:58.298,1502.9,1250.7,1475.5,1514.2
2026-06-21 23:17:58.299,1501.3,1251.5,1472.3,1514.2
2026-06-21 23:17:58.300,1501.3,1249.9,1474.7,1513.4
2026-06-21 23:17:58.301,1504.5,1250.7,1475.5,1513.4
2026-06-21 23:17:58.302,1502.9,1251.5,1475.5,
2026-06-21 23:17:58.303,1505.3,1250.7,1476.3,1514.2
2026-06-21 23:17:58.304,1501.3,1252.3,1476.3,1511.8
2026-06-21 23:17:58.305,1502.1,1252.3,1477.9,1510.2
2026-06-21 23:17:58.306,1502.1,1249.9,1477.9,1513.4
2026-06-21 23:17:58.307,1503.7,1249.9,1477.9,1512.6
2026-06-21 23:17:58.308,1502.1,1248.3,1474.7,1515
2026-06-21 23:17:58.309,1501.3,1253.1,1473.9,1511
2026-06-21 23:17:58.310,1502.1,1250.7,1469.9,1514.2
2026-06-21 23:17:58.311,1502.9,1252.3,1473.1,1511.8
2026-06-21 23:17:58.312,1502.1,1250.7,1479.6,1513.4
2026-06-21 23:17:58.313,1503.7,1250.7,1480.4,1514.2
2026-06-21 23:17:58.314,1502.9,1251.5,,1513.4
2026-06-21 23:17:58.315,1505.3,1251.5,1473.9,1513.4
2026-06-21 23:17:58.316,1502.1,1252.3,1474.7,1513.4
2026-06-21 23:17:58.317,1505.3,1251.5,1469.9,1512.6
2026-06-21 23:17:58.318,1505.3,1252.3,1469.1,1514.2
2026-06-21 23:17:58.319,1504.5,1254.7,1473.1,1514.2
2026-06-21 23:17:58.320,1507.8,1249.1,1471.5,1512.6
2026-06-21 23:17:58.321,1502.1,1250.7,1473.9,1513.4
2026-06-21 23:17:58.322,1505.3,1249.9,1473.9,1511
2026-06-21 23:17:58.323,1503.7,1250.7,1473.9,1511
2026-06-21 23:17:58.324,1502.1,1252.3,1473.9,1513.4
2026-06-21 23:17:58.325,1504.5,1251.5,1473.9,1511.8
2026-06-21 23:17:58.326,1502.1,1250.7,1473.9,1514.2
2026-06-21 23:17:58.327,1502.1,1250.7,1473.1,1514.2
2026-06-21 23:17:58.328,1502.9,1253.9,1469.1,1514.2
2026-06-21 23:17:58.329,1505.3,1248.3,1473.9,1513.4
2026-06-21 23:17:58.330,1502.1,1253.9,1476.3,1512.6
2026-06-21 23:17:58.331,1502.1,1252.3,1473.9,1514.2
2026-06-21 23:17:58.332,1502.1,1251.5,1473.1,1514.2
2026-06-21 23:17:58.333,1502.9,1252.3,1473.9,1513.4
2026-06-21 23:17:58.334,1502.1,1252.3,1475.5,1514.2
2026-06-21 23:17:58.335,1502.1,1248.3,1477.1,1513.4
2026-06-21 23:17:58.348,1502.9,1247.5,1474.7,1514.2
2026-06-21 23:17:58.349,1502.1,1248.3,1474.7,1514.2
2026-06-21 23:17:58.350,1498.9,1250.7,1476.3,1513.4
2026-06-21 23:17:58.351,1499.7,1247.5,1476.3,1514.2
2026-06-21 23:17:58.352,1501.3,1251.5,1474.7,1514.2
2026-06-21 23:17:58.353,1500.5,1249.9,1473.9,1514.2
2026-06-21 23:17:58.354,1502.1,1249.9,1473.1,1514.2
2026-06-21 23:17:58.355,1502.1,1249.1,1472.3,1513.4
2026-06-21 23:17:58.356,1501.3,1251.5,1473.9,1514.2
2026-06-21 23:17:58.357,1500.5,1251.5,1477.9,1515
2026-06-21 23:17:58.358,1501.3,1251.5,1477.1,1514.2
2026-06-21 23:17:58.359,1501.3,1252.3,1477.1,1515
2026-06-21 23:17:58.360,1501.3,1249.9,1477.1,1514.2
2026-06-21 23:17:58.361,1501.3,1249.9,1477.9,1514.2
2026-06-21 23:17:58.362,1501.3,1254.7,1476.3,1514.2
2026-06-21 23:17:58.363,1502.1,1251.5,1473.9,1513.4
2026-06-21 23:17:58.364,1502.1,1251.5,1475.5,1514.2
2026-06-21 23:17:58.365,1502.1,1250.7,1475.5,1513.4
2026-06-21 23:17:58.366,1502.9,1253.9,1474.7,1512.6
2026-06-21 23:17:58.367,1502.9,1252.3,1475.5,1511.8
2026-06-21 23:17:58.368,1502.1,1252.3,1475.5,1511.8
2026-06-21 23:17:58.369,1504.5,1251.5,1476.3,1511.8
2026-06-21 23:17:58.370,1502.1,1253.9,1475.5,1513.4
2026-06-21 23:17:58.371,1504.5,1249.1,1476.3,1511.8
2026-06-21 23:17:58.372,1505.3,1253.9,1473.9,1512.6
2026-06-21 23:17:58.373,1502.9,1250.7,1476.3,1512.6
2026-06-21 23:17:58.374,1502.1,1253.1,1476.3,1514.2
2026-06-21 23:17:58.375,1502.1,1250.7,1476.3,1513.4
2026-06-21 23:17:58.376,1504.5,1251.5,1475.5,1511
2026-06-21 23:17:58.377,1505.3,1251.5,1475.5,1512.6
2026-06-21 23:17:58.378,1504.5,1249.9,1471.5,1514.2
2026-06-21 23:17:58.379,1502.9,1251.5,1473.9,1515
2026-06-21 23:17:58.380,1504.5,1251.5,1473.9,1514.2
2026-06-21 23:17:58.381,1506.2,1252.3,1473.9,1514.2
2026-06-21 23:17:58.382,1502.9,1251.5,1474.7,1513.4
2026-06-21 23:17:58.383,1502.1,1250.7,1473.9,1513.4
2026-06-21 23:17:58.384,1506.2,1251.5,1475.5,1513.4
2026-06-21 23:17:58.385,1502.1,1251.5,1476.3,1513.4
2026-06-21 23:17:58.386,1505.3,1253.9,1475.5,1514.2
2026-06-21 23:17:58.387,1504.5,1250.7,1473.9,1514.2
2026-06-21 23:17:58.388,1502.9,1251.5,1473.9,1513.4
2026-06-21 23:17:58.389,1502.1,1251.5,1475.5,1514.2
2026-06-21 23:17:58.390,1502.1,1251.5,1475.5,1514.2
2026-06-21 23:17:58.391,1504.5,1252.3,1474.7,1511.8
2026-06-21 23:17:58.392,1503.7,1249.1,1473.9,1513.4
2026-06-21 23:17:58.393,1502.1,1252.3,1474.7,1514.2
2026-06-21 23:17:58.394,1504.5,1250.7,1474.7,1514.2
2026-06-21 23:17:58.395,1503.7,1250.7,1472.3,1513.4
2026-06-21 23:17:58.396,1502.1,1251.5,1474.7,1514.2
2026-06-21 23:17:58.397,1502.1,1249.1,1473.9,1514.2
2026-06-21 23:17:58.384,1499.7,1250.7,1477.1,1514.2
2026-06-21 23:17:58.385,1500.5,1248.3,1477.9,1514.2
2026-06-21 23:17:58.386,1501.3,1251.5,1475.5,1514.2
2026-06-21 23:17:58.387,1501.3,1251.5,1473.9,1514.2
2026-06-21 23:17:58.388,1501.3,1249.9,1476.3,1514.2
2026-06-21 23:17:58.389,1500.5,1248.3,1474.7,1514.2
2026-06-21 23:17:58.390,1502.1,1250.7,1472.3,1514.2
2026-06-21 23:17:58.391,1500.5,1248.3,1475.5,1513.4
2026-06-21 23:17:58.392,1501.3,1252.3,1476.3,1514.2
2026-06-21 23:17:58.393,1502.1,1250.7,1474.7,1513.4
2026-06-21 23:17:58.394,1501.3,1250.7,1476.3,1514.2
2026-06-21 23:17:58.395,1501.3,1249.9,1474.7,1514.2
2026-06-21 23:17:58.396,1502.1,1251.5,1477.1,1514.2
2026-06-21 23:17:58.397,1502.1,1253.9,1477.9,1514.2
2026-06-21 23:17:58.398,1501.3,1250.7,1477.1,1513.4
2026-06-21 23:17:58.399,1502.1,1252.3,1476.3,1515.8
2026-06-21 23:17:58.400,1501.3,1249.9,1476.3,1514.2
2026-06-21 23:17:58.401,1501.3,1251.5,1474.7,1511.8
2026-06-21 23:17:58.402,1502.1,1251.5,1474.7,1511.8
2026-06-21 23:17:58.403,1502.1,1251.5,1476.3,1513.4
2026-06-21 23:17:58.404,1502.1,1254.7,1475.5,1513.4
2026-06-21 23:17:58.405,1502.1,1250.7,1475.5,1511
2026-06-21 23:17:58.406,1502.9,1252.3,1475.5,1512.6
2026-06-21 23:17:58.407,1501.3,1253.9,1474.7,1512.6
2026-06-21 23:17:58.408,1501.3,1252.3,1472.3,1514.2
2026-06-21 23:17:58.409,1506.2,1254.7,1474.7,1512.6
2026-06-21 23:17:58.410,1502.1,1249.9,1475.5,1514.2
2026-06-21 23:17:58.411,1505.3,1250.7,1475.5,1512.6
2026-06-21 23:17:58.412,1502.9,1250.7,1476.3,1514.2
2026-06-21 23:17:58.413,1502.1,1251.5,1475.5,1514.2
2026-06-21 23:17:58.414,1502.1,1251.5,1473.1,1511.8
2026-06-21 23:17:58.415,1502.1,1250.7,1473.9,1514.2
2026-06-21 23:17:58.416,1502.9,1252.3,1473.9,1514.2
2026-06-21 23:17:58.417,1501.3,1250.7,1473.9,1511.8
2026-06-21 23:17:58.418,1505.3,1249.1,1473.9,1513.4
2026-06-21 23:17:58.419,1502.1,1253.9,1473.1,1514.2
2026-06-21 23:17:58.420,1502.1,1251.5,1474.7,1513.4
2026-06-21 23:17:58.421,1504.5,1253.9,1473.1,1513.4
2026-06-21 23:17:58.422,1502.9,1249.9,1477.1,1514.2
2026-06-21 23:17:58.423,1502.9,1253.1,1473.9,1512.6
2026-06-21 23:17:58.424,1502.9,1252.3,1476.3,1514.2
2026-06-21 23:17:58.425,1502.1,1252.3,1473.9,1514.2
2026-06-21 23:17:58.426,1502.1,1251.5,1477.1,1514.2
2026-06-21 23:17:58.427,1502.9,1251.5,1472.3,1513.4
2026-06-21 23:17:58.428,1502.9,1253.9,1474.7,1511.8
2026-06-21 23:17:58.429,1502.1,1249.1,1473.1,1514.2
2026-06-21 23:17:58.430,1503.7,1251.5,1475.5,1511.8
2026-06-21 23:17:58.431,1504.5,1251.5,1476.3,1512.6
2026-06-21 23:17:58.432,1502.9,1248.3,1473.9,1514.2
2026-06-21 23:17:58.433,1502.1,1249.9,1477.1,1514.2
2026-06-21 23:17:58.448,1504.5,1249.9,1474.7,1514.2
2026-06-21 23:17:58.449,1501.3,1250.7,1472.3,1514.2
2026-06-21 23:17:58.450,1499.7,1250.7,1474.7,1514.2
2026-06-21 23:17:58.451,1500.5,1251.5,1476.3,1515
2026-06-21 23:17:58.452,1500.5,1249.9,1475.5,1514.2
2026-06-21 23:17:58.453,1500.5,1248.3,1475.5,1512.6
2026-06-21 23:17:58.454,1501.3,1250.7,1475.5,1515
2026-06-21 23:17:58.455,1501.3,1251.5,1475.5,1514.2
2026-06-21 23:17:58.456,1501.3,1250.7,1475.5,1514.2
2026-06-21 23:17:58.457,1501.3,1249.9,1475.5,1514.2
2026-06-21 23:17:58.458,1502.1,1250.7,1475.5,1515
2026-06-21 23:17:58.459,1501.3,1250.7,1473.9,1514.2
2026-06-21 23:17:58.460,1501.3,1251.5,1476.3,1513.4
2026-06-21 23:17:58.461,1502.1,1253.1,1475.5,1515
2026-06-21 23:17:58.462,1504.5,1251.5,1477.1,1514.2
2026-06-21 23:17:58.463,1502.1,1250.7,1476.3,1514.2
2026-06-21 23:17:58.464,1503.7,1252.3,1475.5,1514.2
2026-06-21 23:17:58.465,1501.3,1251.5,1473.9,1514.2
2026-06-21 23:17:58.466,1504.5,1251.5,1476.3,1512.6
2026-06-21 23:17:58.467,1502.9,1249.9,1474.7,1512.6
2026-06-21 23:17:58.468,1505.3,1252.3,1477.9,1510.2
2026-06-21 23:17:58.469,1506.2,1249.9,1476.3,1512.6
2026-06-21 23:17:58.470,1502.9,1253.9,1473.9,1509.4
2026-06-21 23:17:58.471,1504.5,1251.5,1477.1,1513.4
2026-06-21 23:17:58.472,1503.7,1251.5,1477.1,1514.2
2026-06-21 23:17:58.473,1501.3,1253.1,1477.9,1514.2
2026-06-21 23:17:58.474,1502.9,1251.5,1477.1,1514.2
2026-06-21 23:17:58.475,1504.5,1251.5,1476.3,1514.2
2026-06-21 23:17:58.476,1502.1,1251.5,1474.7,1511.8
2026-06-21 23:17:58.477,1502.9,1252.3,1474.7,1511
2026-06-21 23:17:58.478,1505.3,1249.9,1473.9,1514.2
2026-06-21 23:17:58.479,1504.5,1249.1,1473.1,1513.4
2026-06-21 23:17:58.480,1504.5,1253.1,1475.5,1514.2
2026-06-21 23:17:58.481,1503.7,1252.3,1474.7,1514.2
2026-06-21 23:17:58.482,1504.5,1251.5,1474.7,1514.2
2026-06-21 23:17:58.483,1502.9,1249.1,1473.9,1513.4
2026-06-21 23:17:58.484,1503.7,1250.7,1473.1,1514.2
2026-06-21 23:17:58.485,1503.7,1250.7,1469.9,1514.2
2026-06-21 23:17:58.486,1502.9,1253.9,1473.9,1513.4
2026-06-21 23:17:58.487,1502.1,1252.3,1472.3,1514.2
2026-06-21 23:17:58.488,1504.5,1252.3,1475.5,1514.2
2026-06-21 23:17:58.489,1502.9,1249.9,1476.3,1512.6
2026-06-21 23:17:58.490,1504.5,1250.7,1473.9,1514.2
2026-06-21 23:17:58.491,1504.5,1252.3,1473.9,1514.2
2026-06-21 23:17:58.492,1505.3,1250.7,1473.9,1514.2
2026-06-21 23:17:58.493,1508.6,1252.3,1473.1,1512.6
2026-06-21 23:17:58.494,1507.8,1251.5,1473.9,1515.8
2026-06-21 23:17:58.495,1504.5,1251.5,1472.3,1514.2
2026-06-21 23:17:58.496,1503.7,1249.9,1473.9,1514.2
2026-06-21 23:17:58.497,1506.2,1248.3,1477.1,1514.2
2026-06-21 23:17:58.483,1502.9,1247.5,1476.3,1514.2
2026-06-21 23:17:58.484,1501.3,1251.5,1477.9,1512.6
2026-06-21 23:17:58.485,1501.3,1250.7,1477.1,1515
2026-06-21 23:17:58.486,1502.1,1249.9,1473.1,1514.2
2026-06-21 23:17:58.487,1502.1,1249.1,1475.5,1512.6
2026-06-21 23:17:58.488,1502.1,1249.1,1477.1,1515.8
2026-06-21 23:17:58.489,1502.1,1252.3,1473.9,1514.2
2026-06-21 23:17:58.490,1501.3,1248.3,1473.9,1514.2
2026-06-21 23:17:58.491,1504.5,1248.3,1469.9,1514.2
2026-06-21 23:17:58.492,1502.1,1248.3,1473.9,1513.4
2026-06-21 23:17:58.493,1505.3,1253.9,1469.1,1514.2
2026-06-21 23:17:58.494,1507,1251.5,1475.5,1514.2
2026-06-21 23:17:58.495,1502.1,1250.7,1476.3,1513.4
2026-06-21 23:17:58.496,1506.2,1249.9,1473.9,1501.3
2026-06-21 23:17:58.497,1501.3,1252.3,1477.1,1511
2026-06-21 23:17:58.498,1501.3,1249.9,1477.9,1514.2
2026-06-21 23:17:58.499,1504.5,1250.7,1479.6,1524.7
2026-06-21 23:17:58.500,1505.3,1248.3,1482,1521.5
2026-06-21 23:17:58.501,1506.2,1253.9,1477.9,1513.4
2026-06-21 23:17:58.502,1505.3,1251.5,1483.6,1511.8
2026-06-21 23:17:58.503,1506.2,1250.7,1477.9,1502.9
2026-06-21 23:17:58.504,1507,1249.9,1477.1,1498.9
2026-06-21 23:17:58.505,1506.2,1252.3,1473.9,1502.9
2026-06-21 23:17:58.506,1504.5,1252.3,1477.1,1514.2
2026-06-21 23:17:58.507,1504.5,1252.3,1477.9,1518.2
2026-06-21 23:17:58.508,1505.3,1249.9,1477.1,1519.9
2026-06-21 23:17:58.509,1508.6,1254.7,1477.1,1518.2
2026-06-21 23:17:58.510,1503.7,1251.5,1477.9,1515
2026-06-21 23:17:58.511,1503.7,1253.1,1477.9,1513.4
2026-06-21 23:17:58.512,1504.5,1249.9,1473.9,1508.6
2026-06-21 23:17:58.513,1505.3,1252.3,1471.5,1507.8
2026-06-21 23:17:58.514,1505.3,1252.3,1473.9,1513.4
2026-06-21 23:17:58.515,1507.8,1251.5,1473.9,1514.2
2026-06-21 23:17:58.516,1508.6,1252.3,1474.7,1511.8
2026-06-21 23:17:58.517,1508.6,1250.7,1473.9,1514.2
2026-06-21 23:17:58.518,1506.2,1251.5,1473.1,1514.2
2026-06-21 23:17:58.519,1506.2,1252.3,1475.5,1513.4
2026-06-21 23:17:58.520,1507.8,1252.3,1475.5,1515
2026-06-21 23:17:58.521,1506.2,1252.3,1475.5,1512.6
2026-06-21 23:17:58.522,1508.6,1251.5,1475.5,1514.2
2026-06-21 23:17:58.523,1510.2,1252.3,1473.9,1513.4
2026-06-21 23:17:58.524,1507.8,1249.1,1474.7,1514.2
2026-06-21 23:17:58.525,1507,1252.3,1473.9,1513.4
2026-06-21 23:17:58.526,1508.6,1249.9,1473.9,1513.4
2026-06-21 23:17:58.527,1510.2,1249.9,1472.3,1513.4
2026-06-21 23:17:58.528,1509.4,1250.7,1476.3,1514.2
2026-06-21 23:17:58.529,1507,1252.3,1473.9,1514.2
2026-06-21 23:17:58.530,1508.6,1255.5,1474.7,1513.4
2026-06-21 23:17:58.531,1507.8,1249.1,1474.7,1514.2
2026-06-21 23:17:58.532,1507.8,1249.1,1475.5,1513.4
2026-06-21 23:17:58.547,1502.1,1249.9,1477.1,1514.2
2026-06-21 23:17:58.548,1502.1,1248.3,1474.7,1515
2026-06-21 23:17:58.549,1505.3,1251.5,1473.9,1514.2
2026-06-21 23:17:58.550,1502.9,1251.5,1473.9,1514.2
2026-06-21 23:17:58.551,1502.9,1250.7,1474.7,1513.4
2026-06-21 23:17:58.552,1502.1,1251.5,1474.7,1514.2
2026-06-21 23:17:58.553,1502.9,1251.5,1469.9,1514.2
2026-06-21 23:17:58.554,1502.1,1249.1,1468.3,1514.2
2026-06-21 23:17:58.555,1502.9,1254.7,1469.1,1513.4
2026-06-21 23:17:58.556,1502.9,1250.7,1469.1,1514.2
2026-06-21 23:17:58.557,1506.2,1251.5,1474.7,1514.2
2026-06-21 23:17:58.558,1503.7,1251.5,1475.5,1514.2
2026-06-21 23:17:58.559,1502.9,1252.3,1477.1,1514.2
2026-06-21 23:17:58.560,1505.3,1251.5,1482.8,1513.4
2026-06-21 23:17:58.561,1504.5,1249.9,1482.8,1515.8
2026-06-21 23:17:58.562,1504.5,1249.1,1475.5,1514.2
2026-06-21 23:17:58.563,1504.5,1248.3,1477.9,1515.8
2026-06-21 23:17:58.564,1505.3,1251.5,1482,1510.2
2026-06-21 23:17:58.565,1506.2,1251.5,1481.2,1513.4
2026-06-21 23:17:58.566,1504.5,1248.3,1480.4,1512.6
2026-06-21 23:17:58.567,1503.7,1252.3,1479.6,1514.2
2026-06-21 23:17:58.568,1506.2,1250.7,1479.6,1514.2
2026-06-21 23:17:58.569,1504.5,1251.5,1478.8,1512.6
2026-06-21 23:17:58.570,1503.7,1251.5,1477.1,1511.8
2026-06-21 23:17:58.571,1506.2,1249.1,1474.7,1514.2
2026-06-21 23:17:58.572,1505.3,1249.1,1477.9,1514.2
2026-06-21 23:17:58.573,1505.3,1249.9,1481.2,1513.4
2026-06-21 23:17:58.574,1502.9,1250.7,1476.3,1515.8
2026-06-21 23:17:58.575,1507.8,1249.9,1478.8,1513.4
2026-06-21 23:17:58.576,1504.5,1253.9,1478.8,1514.2
2026-06-21 23:17:58.577,1501.3,1253.1,1472.3,1514.2
2026-06-21 23:17:58.578,1506.2,1252.3,1473.1,1514.2
2026-06-21 23:17:58.579,1507,1251.5,1475.5,1514.2
2026-06-21 23:17:58.580,1502.1,1253.1,1469.1,1515
2026-06-21 23:17:58.581,1506.2,1253.1,1473.1,1514.2
2026-06-21 23:17:58.582,1504.5,1252.3,1473.1,1514.2
2026-06-21 23:17:58.583,1502.9,1253.9,1475.5,1515
2026-06-21 23:17:58.584,1507,1252.3,1476.3,1514.2
2026-06-21 23:17:58.585,1507,1255.5,1474.7,1514.2
2026-06-21 23:17:58.586,1502.1,1251.5,1473.9,1515.8
2026-06-21 23:17:58.587,1507.8,1251.5,1471.5,1512.6
2026-06-21 23:17:58.588,1509.4,1252.3,1473.9,1515.8
2026-06-21 23:17:58.589,1506.2,1253.9,1473.1,1515.8
2026-06-21 23:17:58.590,1504.5,1253.1,1475.5,1514.2
2026-06-21 23:17:58.591,1504.5,1255.5,1473.9,1515
2026-06-21 23:17:58.592,1504.5,1249.9,1473.1,1514.2
2026-06-21 23:17:58.593,1505.3,1251.5,1473.9,1515.8
2026-06-21 23:17:58.594,1505.3,1251.5,1475.5,1513.4
2026-06-21 23:17:58.595,1503.7,1251.5,1475.5,1514.2
2026-06-21 23:17:58.596,1502.1,1249.9,1476.3,1514.2
2026-06-21 23:17:58.581,,1246.7,1476.3,1514.2
2026-06-21 23:17:58.581,1499.7,1248.3,1476.3,1514.2
2026-06-21 23:17:58.582,1491.6,1251.5,1475.5,1514.2
2026-06-21 23:17:58.583,1495.7,1249.9,1473.9,1514.2
2026-06-21 23:17:58.584,1498.9,1251.5,1477.1,1514.2
2026-06-21 23:17:58.585,1498.9,1252.3,1474.7,1514.2
2026-06-21 23:17:58.586,1497.3,1251.5,1475.5,1514.2
2026-06-21 23:17:58.587,1500.5,1251.5,1474.7,1512.6
2026-06-21 23:17:58.588,1501.3,1251.5,1477.1,1514.2
2026-06-21 23:17:58.589,1503.7,1250.7,1475.5,1514.2
2026-06-21 23:17:58.590,1501.3,1252.3,1473.9,1513.4
2026-06-21 23:17:58.591,1500.5,1252.3,1474.7,1514.2
2026-06-21 23:17:58.592,1498.9,1253.9,1474.7,1514.2
2026-06-21 23:17:58.593,1502.1,1254.7,1474.7,1514.2
2026-06-21 23:17:58.594,1501.3,1251.5,1473.1,1513.4
2026-06-21 23:17:58.595,1501.3,1251.5,1475.5,1511.8
2026-06-21 23:17:58.596,1501.3,1252.3,1475.5,1512.6
2026-06-21 23:17:58.597,1502.1,1251.5,1474.7,
2026-06-21 23:17:58.598,1503.7,1249.9,1476.3,1515
2026-06-21 23:17:58.599,1506.2,1250.7,1477.9,1510.2
2026-06-21 23:17:58.600,1502.1,1251.5,1483.6,1514.2
2026-06-21 23:17:58.601,1506.2,1252.3,1477.1,1514.2
2026-06-21 23:17:58.602,1504.5,1251.5,1476.3,1513.4
2026-06-21 23:17:58.603,1502.1,1252.3,1475.5,1514.2
2026-06-21 23:17:58.604,1502.1,1249.9,1476.3,1511.8
2026-06-21 23:17:58.605,1502.9,1250.7,1475.5,1514.2
2026-06-21 23:17:58.606,1502.1,1251.5,1475.5,1513.4
2026-06-21 23:17:58.607,1504.5,1251.5,1473.1,1514.2
2026-06-21 23:17:58.608,1501.3,1248.3,1475.5,1511.8
2026-06-21 23:17:58.609,1502.9,1248.3,,1514.2
2026-06-21 23:17:58.610,1501.3,1248.3,1477.1,1511
2026-06-21 23:17:58.611,1502.1,1251.5,1475.5,1513.4
2026-06-21 23:17:58.612,1505.3,1255.5,1471.5,1514.2
2026-06-21 23:17:58.613,1502.9,1251.5,1472.3,1514.2
2026-06-21 23:17:58.614,1504.5,1252.3,1472.3,1514.2
2026-06-21 23:17:58.615,1506.2,1255.5,1473.9,1514.2
2026-06-21 23:17:58.616,1504.5,1254.7,1472.3,1511.8
2026-06-21 23:17:58.617,1505.3,1257.1,1473.1,1514.2
2026-06-21 23:17:58.618,1506.2,1257.1,1472.3,1512.6
2026-06-21 23:17:58.619,1508.6,1254.7,1473.9,1514.2
2026-06-21 23:17:58.620,1502.9,1257.1,1475.5,1514.2
2026-06-21 23:17:58.621,1504.5,1257.1,1474.7,1514.2
2026-06-21 23:17:58.622,1505.3,1257.1,1475.5,1514.2
2026-06-21 23:17:58.623,1507.8,1256.3,1477.1,1514.2
2026-06-21 23:17:58.624,1504.5,1253.1,1475.5,1513.4
2026-06-21 23:17:58.625,1503.7,1253.9,1474.7,1515.8
2026-06-21 23:17:58.626,1507.8,1254.7,1477.9,1514.2
2026-06-21 23:17:58.627,1504.5,1250.7,1475.5,1515.8
2026-06-21 23:17:58.628,1502.9,,1475.5,1514.2
2026-06-21 23:17:58.629,1502.9,1249.1,1473.9,1511
2026-06-21 23:17:58.630,1502.9,1246.7,1475.5,1511
2026-06-21 23:17:58.644,1500.5,1248.3,1475.5,1513.4
2026-06-21 23:17:58.645,1497.3,1246.7,1474.7,1514.2
2026-06-21 23:17:58.646,1501.3,1249.9,1475.5,1515.8
2026-06-21 23:17:58.647,1498.9,1249.9,1476.3,1513.4
2026-06-21 23:17:58.648,1498.9,1249.1,1477.9,1513.4
2026-06-21 23:17:58.649,1499.7,1250.7,1475.5,1514.2
2026-06-21 23:17:58.650,1500.5,1249.1,1479.6,1514.2
2026-06-21 23:17:58.651,1500.5,1251.5,1477.1,1514.2
2026-06-21 23:17:58.652,1498.9,1251.5,1476.3,1514.2
2026-06-21 23:17:58.653,1501.3,1252.3,1477.1,1515
2026-06-21 23:17:58.654,1504.5,1249.9,1477.9,1513.4
2026-06-21 23:17:58.655,1501.3,1251.5,1476.3,1515.8
2026-06-21 23:17:58.656,1502.9,1248.3,1476.3,1514.2
2026-06-21 23:17:58.657,1502.1,1250.7,1477.1,1514.2
2026-06-21 23:17:58.658,1501.3,1249.1,1476.3,1513.4
2026-06-21 23:17:58.659,1502.1,1251.5,1476.3,1512.6
2026-06-21 23:17:58.660,1501.3,1253.9,1477.9,1513.4
2026-06-21 23:17:58.661,1502.1,1252.3,1475.5,1511
2026-06-21 23:17:58.662,1502.9,1250.7,1476.3,1509.4
2026-06-21 23:17:58.663,1506.2,1251.5,1477.9,1510.2
2026-06-21 23:17:58.664,1502.1,1253.1,1476.3,1511.8
2026-06-21 23:17:58.665,1502.1,1253.1,1477.9,1510.2
2026-06-21 23:17:58.666,1502.1,1253.1,1476.3,1511.8
2026-06-21 23:17:58.667,1501.3,1251.5,1477.9,1511.8
2026-06-21 23:17:58.668,1501.3,1250.7,1477.1,1511
2026-06-21 23:17:58.669,1502.9,1253.9,1477.1,1514.2
2026-06-21 23:17:58.670,1502.1,1249.9,1477.9,1514.2
2026-06-21 23:17:58.671,1502.9,1249.9,1476.3,1514.2
2026-06-21 23:17:58.672,1502.9,1252.3,1479.6,1514.2
2026-06-21 23:17:58.673,1502.1,1252.3,1472.3,1513.4
2026-06-21 23:17:58.674,1502.1,1252.3,1474.7,1513.4
2026-06-21 23:17:58.675,1502.1,1250.7,1473.9,1514.2
2026-06-21 23:17:58.676,1502.1,1250.7,1476.3,1514.2
2026-06-21 23:17:58.677,1507,1252.3,1475.5,1513.4
2026-06-21 23:17:58.678,1502.9,1252.3,1475.5,1513.4
2026-06-21 23:17:58.679,1504.5,1255.5,1474.7,1514.2
2026-06-21 23:17:58.680,1502.1,1250.7,1475.5,1513.4
2026-06-21 23:17:58.681,1502.1,1251.5,1474.7,1512.6
2026-06-21 23:17:58.682,1506.2,1251.5,1475.5,1514.2
2026-06-21 23:17:58.683,1502.1,1251.5,1474.7,1514.2
2026-06-21 23:17:58.684,1502.1,1249.1,1475.5,1514.2
2026-06-21 23:17:58.685,1502.1,1249.9,1474.7,1514.2
2026-06-21 23:17:58.686,1502.1,1251.5,1475.5,1511.8
2026-06-21 23:17:58.687,1504.5,1251.5,1475.5,1514.2
2026-06-21 23:17:58.688,1501.3,1251.5,1475.5,1514.2
2026-06-21 23:17:58.689,1504.5,1251.5,1473.9,1514.2
2026-06-21 23:17:58.690,1502.9,1250.7,1477.9,1514.2
2026-06-21 23:17:58.691,1501.3,1249.9,1477.1,1511.8
2026-06-21 23:17:58.692,1510.2,1249.1,1476.3,1513.4
2026-06-21 23:17:58.693,1506.2,1247.5,1477.9,1510.2
2026-06-21 23:17:58.681,1503.7,1249.9,1477.9,1514.2
2026-06-21 23:17:58.682,1502.1,1248.3,1477.1,1513.4
2026-06-21 23:17:58.683,1500.5,1247.5,1477.1,1514.2
2026-06-21 23:17:58.684,1499.7,1252.3,1477.1,1515
2026-06-21 23:17:58.685,1500.5,1249.1,1477.9,1515.8
2026-06-21 23:17:58.686,1500.5,1252.3,1476.3,1515.8
2026-06-21 23:17:58.687,1501.3,1248.3,1476.3,1515.8
2026-06-21 23:17:58.688,1501.3,1250.7,1476.3,1515
2026-06-21 23:17:58.689,1498.9,1251.5,1476.3,1515.8
2026-06-21 23:17:58.690,1501.3,1249.9,1479.6,1514.2
2026-06-21 23:17:58.691,1501.3,1252.3,1478.8,1513.4
2026-06-21 23:17:58.692,1501.3,1254.7,1476.3,1514.2
2026-06-21 23:17:58.693,1501.3,1251.5,1477.1,1515.8
2026-06-21 23:17:58.694,1502.9,1253.1,1477.9,1514.2
2026-06-21 23:17:58.695,1501.3,1251.5,1477.1,1513.4
2026-06-21 23:17:58.696,1502.1,1249.1,1477.9,1514.2
2026-06-21 23:17:58.697,1501.3,1249.9,1476.3,1514.2
2026-06-21 23:17:58.698,1501.3,1249.1,1475.5,1511
2026-06-21 23:17:58.699,1501.3,1251.5,1476.3,1507.8
2026-06-21 23:17:58.700,1502.1,1251.5,1476.3,1510.2
2026-06-21 23:17:58.701,1502.1,1249.9,1477.1,1512.6
2026-06-21 23:17:58.702,1501.3,1250.7,1476.3,1511
2026-06-21 23:17:58.703,1506.2,1253.9,1476.3,1513.4
2026-06-21 23:17:58.704,1502.1,1251.5,1477.9,1511.8
2026-06-21 23:17:58.705,1502.1,1251.5,1477.9,1511.8
2026-06-21 23:17:58.706,1502.1,1251.5,1476.3,1511.8
2026-06-21 23:17:58.707,1502.1,1252.3,1476.3,1511
2026-06-21 23:17:58.708,1502.1,1251.5,1474.7,1513.4
2026-06-21 23:17:58.709,1501.3,1249.9,1477.1,1514.2
2026-06-21 23:17:58.710,1502.9,1250.7,1472.3,1512.6
2026-06-21 23:17:58.711,1505.3,1253.9,1473.1,1512.6
2026-06-21 23:17:58.712,1502.1,1252.3,1473.9,1512.6
2026-06-21 23:17:58.713,1502.9,1252.3,1474.7,1513.4
2026-06-21 23:17:58.714,1505.3,1250.7,1476.3,1514.2
2026-06-21 23:17:58.715,1502.1,1250.7,1475.5,1514.2
2026-06-21 23:17:58.716,1501.3,1251.5,1473.1,1514.2
2026-06-21 23:17:58.717,1502.1,1249.1,1474.7,1514.2
2026-06-21 23:17:58.718,1504.5,1250.7,1475.5,1514.2
2026-06-21 23:17:58.719,1502.9,1251.5,1476.3,1512.6
2026-06-21 23:17:58.720,1501.3,1251.5,1476.3,1515.8
2026-06-21 23:17:58.721,1504.5,1251.5,1475.5,1512.6
2026-06-21 23:17:58.722,1502.9,1251.5,1475.5,1514.2
2026-06-21 23:17:58.723,1502.9,1253.9,1475.5,1513.4
2026-06-21 23:17:58.724,1502.9,1251.5,1474.7,1511.8
2026-06-21 23:17:58.725,1502.9,1250.7,1476.3,1514.2
2026-06-21 23:17:58.726,1504.5,1250.7,1475.5,1511.8
2026-06-21 23:17:58.727,1504.5,1251.5,1477.9,1513.4
2026-06-21 23:17:58.728,1505.3,1249.9,1476.3,1513.4
2026-06-21 23:17:58.729,1505.3,1249.1,1476.3,1513.4
2026-06-21 23:17:58.730,1503.7,1250.7,1477.1,1513.4
2026-06-21 23:17:58.746,1483.6,1248.3,1475.5,1511.8
2026-06-21 23:17:58.747,1498.9,1249.1,1478.8,1515
2026-06-21 23:17:58.748,1494.9,1249.9,1477.9,1514.2
2026-06-21 23:17:58.749,1498.1,1249.9,1476.3,1514.2
2026-06-21 23:17:58.750,1501.3,1246.7,1475.5,1515.8
2026-06-21 23:17:58.751,1500.5,1247.5,1473.9,1515
2026-06-21 23:17:58.752,1498.9,1251.5,1477.1,1515
2026-06-21 23:17:58.753,1500.5,1247.5,1476.3,1514.2
2026-06-21 23:17:58.754,1502.1,1249.9,1474.7,1514.2
2026-06-21 23:17:58.755,1501.3,1251.5,1475.5,1514.2
2026-06-21 23:17:58.756,1501.3,1251.5,1476.3,1514.2
2026-06-21 23:17:58.757,1501.3,1252.3,1476.3,1515.8
2026-06-21 23:17:58.758,1501.3,1252.3,1475.5,1514.2
2026-06-21 23:17:58.759,1502.1,1252.3,1477.9,1514.2
2026-06-21 23:17:58.760,1503.7,1250.7,1475.5,1513.4
2026-06-21 23:17:58.761,1504.5,1251.5,1476.3,1514.2
2026-06-21 23:17:58.762,1502.9,1251.5,1473.1,1514.2
2026-06-21 23:17:58.763,1506.2,1255.5,1473.9,
2026-06-21 23:17:58.764,1504.5,1250.7,1475.5,1514.2
2026-06-21 23:17:58.765,1505.3,1252.3,1474.7,1507
2026-06-21 23:17:58.766,1507,1251.5,1473.9,1510.2
2026-06-21 23:17:58.767,1502.9,1249.9,1475.5,1513.4
2026-06-21 23:17:58.768,1504.5,1250.7,1475.5,1511.8
2026-06-21 23:17:58.769,1506.2,1250.7,1475.5,1511
2026-06-21 23:17:58.770,1504.5,1250.7,1477.1,1513.4
2026-06-21 23:17:58.771,1507.8,1250.7,1474.7,1514.2
2026-06-21 23:17:58.772,1505.3,1249.9,1476.3,1511.8
2026-06-21 23:17:58.773,1509.4,1249.9,1475.5,1511
2026-06-21 23:17:58.774,1504.5,1249.1,1476.3,1511.8
2026-06-21 23:17:58.775,1507.8,1249.1,,1513.4
2026-06-21 23:17:58.776,1504.5,1249.1,1477.1,1512.6
2026-06-21 23:17:58.777,1506.2,1245.9,1473.9,1514.2
2026-06-21 23:17:58.778,1504.5,1247.5,1474.7,1513.4
2026-06-21 23:17:58.779,1505.3,1251.5,1473.9,1514.2
2026-06-21 23:17:58.780,1502.9,1249.9,1473.9,1514.2
2026-06-21 23:17:58.781,1505.3,1250.7,1473.9,1514.2
2026-06-21 23:17:58.782,1506.2,1253.9,1474.7,1515
2026-06-21 23:17:58.783,1507.8,1252.3,1475.5,1512.6
2026-06-21 23:17:58.784,1504.5,1255.5,1473.9,1514.2
2026-06-21 23:17:58.785,1506.2,1255.5,1473.1,1512.6
2026-06-21 23:17:58.786,1503.7,1249.9,1473.9,1513.4
2026-06-21 23:17:58.787,1505.3,1251.5,1475.5,1514.2
2026-06-21 23:17:58.788,1507.8,1253.9,1475.5,1514.2
2026-06-21 23:17:58.789,1503.7,1251.5,1473.9,1514.2
2026-06-21 23:17:58.790,1503.7,1255.5,1474.7,1512.6
2026-06-21 23:17:58.791,1503.7,1259.6,1476.3,1513.4
2026-06-21 23:17:58.792,1505.3,1253.1,1473.9,1514.2
2026-06-21 23:17:58.793,1508.6,1251.5,1475.5,1513.4
2026-06-21 23:17:58.794,1506.2,,1476.3,1514.2
2026-06-21 23:17:58.795,1506.2,1249.1,1475.5,1511.8
2026-06-21 23:17:58.780,,1247.5,1473.9,1514.2
2026-06-21 23:17:58.781,1502.9,1249.1,1474.7,1514.2
2026-06-21 23:17:58.782,1501.3,1249.9,1473.9,1513.4
2026-06-21 23:17:58.783,1501.3,1244.2,1476.3,1514.2
2026-06-21 23:17:58.784,1502.1,1244.2,1474.7,1514.2
2026-06-21 23:17:58.785,1501.3,1245.9,1475.5,1514.2
2026-06-21 23:17:58.786,1501.3,1249.1,1473.1,1513.4
2026-06-21 23:17:58.787,1502.1,1250.7,1473.9,1514.2
2026-06-21 23:17:58.788,1501.3,1249.9,1476.3,1514.2
2026-06-21 23:17:58.789,1502.1,1251.5,1475.5,1514.2
2026-06-21 23:17:58.790,1501.3,1251.5,1474.7,1513.4
2026-06-21 23:17:58.791,1502.1,1251.5,1475.5,1513.4
2026-06-21 23:17:58.792,1502.9,1253.9,1477.1,1514.2
2026-06-21 23:17:58.793,1502.1,1250.7,1477.9,1511
2026-06-21 23:17:58.794,1504.5,1253.9,1475.5,1514.2
2026-06-21 23:17:58.795,1502.1,1255.5,1473.9,1514.2
2026-06-21 23:17:58.796,1502.1,1254.7,1475.5,1515
2026-06-21 23:17:58.797,1501.3,1252.3,1475.5,1514.2
2026-06-21 23:17:58.798,1502.1,1253.9,1475.5,1514.2
2026-06-21 23:17:58.799,1501.3,1249.1,1476.3,1509.4
2026-06-21 23:17:58.800,1502.9,1247.5,1477.1,1512.6
2026-06-21 23:17:58.801,1501.3,1249.1,1475.5,1510.2
2026-06-21 23:17:58.802,1502.1,1249.9,1477.9,1509.4
2026-06-21 23:17:58.803,1502.1,1249.9,1475.5,1510.2
2026-06-21 23:17:58.804,1502.1,1248.3,1474.7,1511.8
2026-06-21 23:17:58.805,1502.1,1249.9,1475.5,1511.8
2026-06-21 23:17:58.806,1502.1,1249.1,1476.3,1511.8
2026-06-21 23:17:58.807,1501.3,1248.3,1476.3,1511.8
2026-06-21 23:17:58.808,1504.5,1250.7,1476.3,1514.2
2026-06-21 23:17:58.809,1502.1,1252.3,1476.3,1514.2
2026-06-21 23:17:58.810,1502.1,1251.5,1473.1,1512.6
2026-06-21 23:17:58.811,1502.9,1251.5,1472.3,1512.6
2026-06-21 23:17:58.812,1504.5,1251.5,1473.1,1513.4
2026-06-21 23:17:58.813,1502.1,1251.5,1473.1,1512.6
2026-06-21 23:17:58.814,1506.2,1253.9,1474.7,1514.2
2026-06-21 23:17:58.815,1502.1,1252.3,1475.5,1511.8
2026-06-21 23:17:58.816,1502.9,1254.7,1473.9,1513.4
2026-06-21 23:17:58.817,1501.3,1251.5,1474.7,1513.4
2026-06-21 23:17:58.818,1502.1,1249.1,1475.5,1514.2
2026-06-21 23:17:58.819,1502.9,1250.7,1473.9,1514.2
2026-06-21 23:17:58.820,1502.9,1249.9,1473.1,1513.4
2026-06-21 23:17:58.821,1507,1253.9,1473.9,1512.6
2026-06-21 23:17:58.822,1502.1,1252.3,1474.7,1512.6
2026-06-21 23:17:58.823,1503.7,1252.3,1473.9,1514.2
2026-06-21 23:17:58.824,1507,1254.7,1476.3,1512.6
2026-06-21 23:17:58.825,1504.5,1254.7,1476.3,1514.2
2026-06-21 23:17:58.826,1506.2,1252.3,1475.5,1514.2
2026-06-21 23:17:58.827,1502.1,1250.7,1475.5,1514.2
2026-06-21 23:17:58.828,1506.2,1251.5,1474.7,1514.2
2026-06-21 23:17:58.829,1501.3,1249.9,1474.7,1511.8
2026-06-21 23:17:58.830,1502.1,1249.1,1473.1,1514.2
2026-06-21 23:17:58.820,1502.9,1250.7,1474.7,1514.2
2026-06-21 23:17:58.821,1501.3,1249.1,1475.5,1519
2026-06-21 23:17:58.822,1499.7,1249.1,1475.5,1513.4
2026-06-21 23:17:58.823,1498.9,1248.3,1473.9,1514.2
2026-06-21 23:17:58.824,1498.9,1249.9,1475.5,1514.2
2026-06-21 23:17:58.825,1501.3,1250.7,1475.5,1514.2
2026-06-21 23:17:58.826,1500.5,1247.5,1476.3,1514.2
2026-06-21 23:17:58.827,1498.9,1248.3,1476.3,1514.2
2026-06-21 23:17:58.828,1500.5,1251.5,1475.5,1515
2026-06-21 23:17:58.829,1501.3,1251.5,1477.9,1514.2
2026-06-21 23:17:58.830,1500.5,1252.3,1476.3,1517.4
2026-06-21 23:17:58.831,1501.3,1251.5,1475.5,1514.2
2026-06-21 23:17:58.832,1501.3,1252.3,1474.7,1512.6
2026-06-21 23:17:58.833,1501.3,1250.7,1476.3,1514.2
2026-06-21 23:17:58.834,1502.1,1251.5,1475.5,1513.4
2026-06-21 23:17:58.835,1502.9,1249.1,1474.7,1512.6
2026-06-21 23:17:58.836,1501.3,1250.7,1476.3,1513.4
2026-06-21 23:17:58.837,1501.3,1251.5,1477.1,1510.2
2026-06-21 23:17:58.838,1506.2,1249.1,1473.9,1512.6
2026-06-21 23:17:58.839,1502.1,1250.7,1473.9,1507.8
2026-06-21 23:17:58.840,1502.1,1249.9,1476.3,1512.6
2026-06-21 23:17:58.841,1502.1,1251.5,1477.1,1513.4
2026-06-21 23:17:58.842,1500.5,1249.9,1476.3,1514.2
2026-06-21 23:17:58.843,1501.3,1251.5,1475.5,1513.4
2026-06-21 23:17:58.844,1502.1,1252.3,1477.1,1511
2026-06-21 23:17:58.845,1502.1,1250.7,1475.5,1510.2
2026-06-21 23:17:58.846,1502.1,1254.7,1476.3,1511.8
2026-06-21 23:17:58.847,1501.3,1252.3,1477.9,1511.8
2026-06-21 23:17:58.848,1502.1,1252.3,1478.8,1511.8
2026-06-21 23:17:58.849,1501.3,1252.3,1476.3,1512.6
2026-06-21 23:17:58.850,1501.3,1248.3,1473.9,1513.4
2026-06-21 23:17:58.851,1502.9,1255.5,1473.1,1514.2
2026-06-21 23:17:58.852,1502.9,1254.7,1476.3,1513.4
2026-06-21 23:17:58.853,1502.9,1251.5,1471.5,1514.2
2026-06-21 23:17:58.854,1503.7,1251.5,1473.9,1514.2
2026-06-21 23:17:58.855,1502.1,1252.3,1471.5,1514.2
2026-06-21 23:17:58.856,1504.5,1253.9,1473.1,1513.4
2026-06-21 23:17:58.857,1502.1,1251.5,1473.9,1513.4
2026-06-21 23:17:58.858,1502.1,1252.3,1473.9,1514.2
2026-06-21 23:17:58.859,1504.5,1251.5,1473.9,1513.4
2026-06-21 23:17:58.860,1502.1,1252.3,1474.7,1514.2
2026-06-21 23:17:58.861,1502.1,1251.5,1476.3,1513.4
2026-06-21 23:17:58.862,1506.2,1252.3,1477.1,1513.4
2026-06-21 23:17:58.863,1502.1,1250.7,1473.9,1512.6
2026-06-21 23:17:58.864,1502.9,1250.7,1477.9,1514.2
2026-06-21 23:17:58.865,1502.9,1250.7,1475.5,1514.2
2026-06-21 23:17:58.866,1501.3,1251.5,1474.7,1514.2
2026-06-21 23:17:58.867,1501.3,1249.9,1477.1,1513.4
2026-06-21 23:17:58.868,1502.1,1249.9,1475.5,1514.2
2026-06-21 23:17:58.869,1505.3,1249.9,1474.7,1514.2
2026-06-21 23:17:58.880,1502.9,1250.7,1474.7,1513.4
2026-06-21 23:17:58.881,1500.5,1249.1,1473.9,1515
2026-06-21 23:17:58.882,1497.3,1251.5,1476.3,1514.2
2026-06-21 23:17:58.883,1500.5,1251.5,1476.3,1514.2
2026-06-21 23:17:58.884,1500.5,1251.5,1475.5,1515
2026-06-21 23:17:58.885,1501.3,1249.9,1477.1,1514.2
2026-06-21 23:17:58.886,1501.3,1249.1,1477.1,1514.2
2026-06-21 23:17:58.887,1502.1,1247.5,1477.1,1514.2
2026-06-21 23:17:58.888,1501.3,1248.3,1477.1,1515.8
2026-06-21 23:17:58.889,1502.9,1251.5,1476.3,1513.4
2026-06-21 23:17:58.890,1500.5,1249.9,1476.3,1514.2
2026-06-21 23:17:58.891,1501.3,1251.5,1476.3,1515.8
2026-06-21 23:17:58.892,1501.3,1249.9,1473.1,1514.2
2026-06-21 23:17:58.893,1501.3,1249.9,1475.5,1514.2
2026-06-21 23:17:58.894,1501.3,1251.5,1475.5,1514.2
2026-06-21 23:17:58.895,1501.3,1251.5,1477.9,1514.2
2026-06-21 23:17:58.896,1502.1,1251.5,1476.3,1514.2
2026-06-21 23:17:58.897,1501.3,1251.5,1477.1,1515
2026-06-21 23:17:58.898,1502.9,1249.9,1476.3,1510.2
2026-06-21 23:17:58.899,1502.1,1251.5,1477.9,1511.8
2026-06-21 23:17:58.900,1501.3,1250.7,1477.1,1511.8
2026-06-21 23:17:58.901,1501.3,1251.5,1474.7,1513.4
2026-06-21 23:17:58.902,1502.1,1252.3,1475.5,1512.6
2026-06-21 23:17:58.903,1502.1,1249.9,1475.5,1513.4
2026-06-21 23:17:58.904,1502.9,1252.3,1477.1,1514.2
2026-06-21 23:17:58.905,1500.5,1248.3,1475.5,1511.8
2026-06-21 23:17:58.906,1500.5,1251.5,1473.9,1514.2
2026-06-21 23:17:58.907,1501.3,1249.9,1476.3,1512.6
2026-06-21 23:17:58.908,1501.3,1250.7,1476.3,1514.2
2026-06-21 23:17:58.909,1501.3,1249.9,1477.1,1514.2
2026-06-21 23:17:58.910,1504.5,1250.7,1476.3,1514.2
2026-06-21 23:17:58.911,1506.2,1251.5,1473.9,1513.4
2026-06-21 23:17:58.912,1504.5,1251.5,1473.9,1514.2
2026-06-21 23:17:58.913,1505.3,1249.9,1472.3,1514.2
2026-06-21 23:17:58.914,1506.2,1250.7,1473.9,1513.4
2026-06-21 23:17:58.915,1507,1249.9,1473.9,1514.2
2026-06-21 23:17:58.916,1508.6,1251.5,1473.9,1514.2
2026-06-21 23:17:58.917,1506.2,1251.5,1474.7,1514.2
2026-06-21 23:17:58.918,1503.7,1253.9,1474.7,1513.4
2026-06-21 23:17:58.919,1504.5,1255.5,1473.9,1511.8
2026-06-21 23:17:58.920,1502.9,1249.9,1475.5,1513.4
2026-06-21 23:17:58.921,1506.2,1251.5,1474.7,1512.6
2026-06-21 23:17:58.922,1502.9,1253.9,1474.7,1513.4
2026-06-21 23:17:58.923,1506.2,1251.5,1475.5,1514.2
2026-06-21 23:17:58.924,1506.2,1251.5,1474.7,1514.2
2026-06-21 23:17:58.925,1505.3,1250.7,1473.9,1514.2
2026-06-21 23:17:58.926,1504.5,1251.5,1473.9,1512.6
2026-06-21 23:17:58.927,1504.5,1252.3,1474.7,1515
2026-06-21 23:17:58.928,1505.3,1251.5,1473.1,1514.2
2026-06-21 23:17:58.929,1505.3,1249.9,1476.3,1513.4
2026-06-21 23:17:58.916,1501.3,1247.5,1474.7,1514.2
2026-06-21 23:17:58.917,1502.9,1247.5,1475.5,1514.2
2026-06-21 23:17:58.918,1499.7,1251.5,1474.7,1515.8
2026-06-21 23:17:58.919,1501.3,1249.9,1476.3,1515.8
2026-06-21 23:17:58.920,1502.1,1249.9,1475.5,1514.2
2026-06-21 23:17:58.921,1502.1,1251.5,1475.5,1519
2026-06-21 23:17:58.922,1502.9,1251.5,1473.9,1515.8
2026-06-21 23:17:58.923,1501.3,1249.1,1477.1,1515
2026-06-21 23:17:58.924,1501.3,1248.3,1475.5,1514.2
2026-06-21 23:17:58.925,1501.3,1253.9,1476.3,1514.2
2026-06-21 23:17:58.926,1501.3,1251.5,1475.5,1514.2
2026-06-21 23:17:58.927,1501.3,1251.5,1476.3,1514.2
2026-06-21 23:17:58.928,1505.3,1252.3,1473.9,1513.4
2026-06-21 23:17:58.929,1506.2,1251.5,1477.1,1514.2
2026-06-21 23:17:58.930,1502.9,1250.7,1476.3,1514.2
2026-06-21 23:17:58.931,1502.1,1250.7,1474.7,1514.2
2026-06-21 23:17:58.932,1504.5,1247.5,1473.1,1514.2
2026-06-21 23:17:58.933,1507.8,1251.5,1475.5,1515
2026-06-21 23:17:58.934,1507,1251.5,1475.5,1515
2026-06-21 23:17:58.935,1502.1,1253.9,1475.5,1511
2026-06-21 23:17:58.936,1506.2,1251.5,1476.3,1511.8
2026-06-21 23:17:58.937,1504.5,1250.7,1476.3,1511.8
2026-06-21 23:17:58.938,1504.5,1250.7,1477.9,1511.8
2026-06-21 23:17:58.939,1506.2,1251.5,1476.3,1512.6
2026-06-21 23:17:58.940,1505.3,1249.1,1477.9,1513.4
2026-06-21 23:17:58.941,1502.9,1249.9,1475.5,1511.8
2026-06-21 23:17:58.942,1502.1,1249.9,1476.3,1511
2026-06-21 23:17:58.943,1502.1,1249.9,1476.3,1511
2026-06-21 23:17:58.944,1502.1,1250.7,1476.3,1511.8
2026-06-21 23:17:58.945,1502.1,1251.5,1475.5,1514.2
2026-06-21 23:17:58.946,1504.5,1251.5,1473.1,1514.2
2026-06-21 23:17:58.947,1506.2,1249.9,1472.3,1513.4
2026-06-21 23:17:58.948,1507.8,1251.5,1472.3,1512.6
2026-06-21 23:17:58.949,1503.7,1252.3,1473.9,1514.2
2026-06-21 23:17:58.950,1505.3,1249.1,1473.9,1513.4
2026-06-21 23:17:58.951,1506.2,1249.9,1473.1,1513.4
2026-06-21 23:17:58.952,1508.6,1250.7,1473.1,1514.2
2026-06-21 23:17:58.953,1507,1248.3,1473.1,1512.6
2026-06-21 23:17:58.954,1511,1249.1,1472.3,1514.2
2026-06-21 23:17:58.955,1504.5,1248.3,1473.9,1514.2
2026-06-21 23:17:58.956,1504.5,1249.9,1476.3,1514.2
2026-06-21 23:17:58.957,1504.5,1250.7,1475.5,1515
2026-06-21 23:17:58.958,1506.2,1248.3,1474.7,1514.2
2026-06-21 23:17:58.959,1504.5,1253.1,1473.9,1514.2
2026-06-21 23:17:58.960,1507,1249.1,1474.7,1513.4
2026-06-21 23:17:58.961,1504.5,1249.1,1474.7,1514.2
2026-06-21 23:17:58.962,1506.2,1252.3,1475.5,1512.6
2026-06-21 23:17:58.963,1507,1251.5,1473.9,1513.4
2026-06-21 23:17:58.964,1507.8,1248.3,1473.9,1514.2
2026-06-21 23:17:58.965,1506.2,1248.3,1476.3,1514.2
2026-06-21 23:17:58.979,1505.3,1247.5,1473.9,1514.2
2026-06-21 23:17:58.980,1501.3,1250.7,1476.3,1514.2
2026-06-21 23:17:58.981,1500.5,1251.5,1477.1,1515
2026-06-21 23:17:58.982,1500.5,1249.1,1476.3,1513.4
2026-06-21 23:17:58.983,1500.5,1250.7,1475.5,1514.2
2026-06-21 23:17:58.984,1501.3,1248.3,1476.3,1514.2
2026-06-21 23:17:58.985,1502.9,1249.1,1475.5,1513.4
2026-06-21 23:17:58.986,1501.3,1249.1,1476.3,1514.2
2026-06-21 23:17:58.987,1502.1,1250.7,1476.3,1514.2
2026-06-21 23:17:58.988,1502.1,1251.5,1476.3,1514.2
2026-06-21 23:17:58.989,1502.1,1249.1,1475.5,1514.2
2026-06-21 23:17:58.990,1504.5,1251.5,1475.5,1514.2
2026-06-21 23:17:58.991,1502.1,1251.5,1473.9,1514.2
2026-06-21 23:17:58.992,1504.5,1249.1,1477.9,1514.2
2026-06-21 23:17:58.993,1507,1248.3,1477.1,1515.8
2026-06-21 23:17:58.994,1507.8,1249.9,1476.3,1514.2
2026-06-21 23:17:58.995,1503.7,1252.3,1477.9,1513.4
2026-06-21 23:17:58.996,1507,1251.5,1477.9,1513.4
2026-06-21 23:17:58.997,1502.1,1249.1,1477.9,1512.6
2026-06-21 23:17:58.998,1507,1251.5,1476.3,1512.6
2026-06-21 23:17:58.999,1505.3,1251.5,1477.9,1513.4
2026-06-21 23:17:59.000,1502.9,1253.1,1476.3,1511.8
2026-06-21 23:17:59.001,1502.9,1253.1,1475.5,1513.4
2026-06-21 23:17:59.002,1505.3,1252.3,1477.1,1513.4
2026-06-21 23:17:59.003,1504.5,1249.1,1476.3,1513.4
2026-06-21 23:17:59.004,1502.9,1252.3,1477.1,1514.2
2026-06-21 23:17:59.005,1505.3,1252.3,1479.6,1514.2
2026-06-21 23:17:59.006,1506.2,1252.3,1475.5,1514.2
2026-06-21 23:17:59.007,1506.2,1251.5,1477.9,1513.4
2026-06-21 23:17:59.008,1502.9,1256.3,1476.3,1514.2
2026-06-21 23:17:59.009,1502.9,1253.1,1472.3,1514.2
2026-06-21 23:17:59.010,1505.3,1250.7,1469.9,1514.2
2026-06-21 23:17:59.011,1504.5,1253.1,1473.1,1514.2
2026-06-21 23:17:59.012,1509.4,1251.5,1474.7,1514.2
2026-06-21 23:17:59.013,1507.8,1251.5,1473.1,1515
2026-06-21 23:17:59.014,1506.2,1251.5,1474.7,1514.2
2026-06-21 23:17:59.015,1508.6,1253.9,1473.1,1514.2
2026-06-21 23:17:59.016,1507,1251.5,1473.1,1513.4
2026-06-21 23:17:59.017,1510.2,1253.1,1473.1,1515
2026-06-21 23:17:59.018,1509.4,1251.5,1471.5,1512.6
2026-06-21 23:17:59.019,1505.3,1254.7,1473.9,1514.2
2026-06-21 23:17:59.020,1507,1251.5,1476.3,1511.8
2026-06-21 23:17:59.021,1507.8,1251.5,1475.5,1511.8
2026-06-21 23:17:59.022,1506.2,1252.3,1473.9,1514.2
2026-06-21 23:17:59.023,1506.2,1251.5,1473.9,1514.2
2026-06-21 23:17:59.024,1510.2,1251.5,1474.7,1514.2
2026-06-21 23:17:59.025,1507,1251.5,1473.9,1513.4
2026-06-21 23:17:59.026,1507,1251.5,1473.9,1514.2
2026-06-21 23:17:59.027,1507.8,1249.9,1473.9,1513.4
2026-06-21 23:17:59.028,1510.2,1248.3,1473.9,1514.2
2026-06-21 23:17:59.015,1508.6,1248.3,1472.3,1514.2
2026-06-21 23:17:59.016,1502.1,1251.5,1473.9,1511
2026-06-21 23:17:59.017,1501.3,1248.3,1476.3,1514.2
2026-06-21 23:17:59.018,1501.3,1251.5,1474.7,1514.2
2026-06-21 23:17:59.019,1502.9,1249.1,1476.3,1513.4
2026-06-21 23:17:59.020,1502.9,1248.3,1474.7,1515.8
2026-06-21 23:17:59.021,1502.1,1251.5,1476.3,1514.2
2026-06-21 23:17:59.022,1505.3,1251.5,1476.3,1514.2
2026-06-21 23:17:59.023,1503.7,1249.1,1473.9,1514.2
2026-06-21 23:17:59.024,1508.6,1247.5,1469.9,1514.2
2026-06-21 23:17:59.025,1507,1250.7,1475.5,1515
2026-06-21 23:17:59.026,1502.9,1253.9,1473.9,1514.2
2026-06-21 23:17:59.027,1502.9,1252.3,1473.9,1514.2
2026-06-21 23:17:59.028,1502.9,1251.5,1477.1,1512.6
2026-06-21 23:17:59.029,1505.3,1251.5,1476.3,1515
2026-06-21 23:17:59.030,1505.3,1249.9,1477.9,1514.2
2026-06-21 23:17:59.031,1506.2,1249.1,1477.9,1514.2
2026-06-21 23:17:59.032,1505.3,1249.1,1477.1,1514.2
2026-06-21 23:17:59.033,1506.2,1251.5,1476.3,1511.8
2026-06-21 23:17:59.034,1507.8,1251.5,1476.3,1514.2
2026-06-21 23:17:59.035,1506.2,1249.1,1476.3,1511.8
2026-06-21 23:17:59.036,1508.6,1251.5,1477.9,1513.4
2026-06-21 23:17:59.037,1510.2,1253.1,1477.1,1513.4
2026-06-21 23:17:59.038,1510.2,1252.3,1475.5,1512.6
2026-06-21 23:17:59.039,1506.2,1253.9,1475.5,1514.2
2026-06-21 23:17:59.040,1506.2,1251.5,1476.3,1512.6
2026-06-21 23:17:59.041,1507.8,1251.5,1474.7,1514.2
2026-06-21 23:17:59.042,1507,1256.3,1473.9,1515
2026-06-21 23:17:59.043,1506.2,1255.5,1476.3,1512.6
2026-06-21 23:17:59.044,1506.2,1253.1,1469.1,1511.8
2026-06-21 23:17:59.045,1502.1,1251.5,1471.5,1513.4
2026-06-21 23:17:59.046,1502.1,1254.7,1472.3,1514.2
2026-06-21 23:17:59.047,1503.7,1251.5,1473.9,1515
2026-06-21 23:17:59.048,1504.5,1250.7,1473.9,1514.2
2026-06-21 23:17:59.049,1502.1,1254.7,1472.3,1514.2
2026-06-21 23:17:59.050,1501.3,1256.3,1473.9,1511.8
2026-06-21 23:17:59.051,1503.7,1254.7,1474.7,1514.2
2026-06-21 23:17:59.052,1502.1,1252.3,1473.1,1514.2
2026-06-21 23:17:59.053,1502.1,1255.5,1475.5,1514.2
2026-06-21 23:17:59.054,1502.1,1253.9,1475.5,1514.2
2026-06-21 23:17:59.055,1502.1,1252.3,1475.5,1514.2
2026-06-21 23:17:59.056,1502.9,1252.3,1476.3,1514.2
2026-06-21 23:17:59.057,1501.3,1249.1,1475.5,1514.2
2026-06-21 23:17:59.058,1502.1,1251.5,1476.3,1512.6
2026-06-21 23:17:59.059,1501.3,1251.5,1473.9,1513.4
2026-06-21 23:17:59.060,1502.9,1253.9,1473.1,1512.6
2026-06-21 23:17:59.061,1502.1,1251.5,1475.5,1514.2
2026-06-21 23:17:59.062,1502.1,1250.7,1473.1,1514.2
2026-06-21 23:17:59.063,1502.9,1251.5,1475.5,1511.8
2026-06-21 23:17:59.064,1502.1,1248.3,1475.5,1513.4
2026-06-21 23:17:59.080,1501.3,1246.7,1474.7,1514.2
2026-06-21 23:17:59.081,1494.9,1245.9,1475.5,1515.8
2026-06-21 23:17:59.082,1498.1,1249.9,1475.5,1514.2
2026-06-21 23:17:59.083,1500.5,1249.9,1474.7,1514.2
2026-06-21 23:17:59.084,1498.9,1246.7,1476.3,1515.8
2026-06-21 23:17:59.085,1498.9,1250.7,1475.5,1513.4
2026-06-21 23:17:59.086,1502.1,1251.5,1474.7,1514.2
2026-06-21 23:17:59.087,1499.7,1251.5,1475.5,1514.2
2026-06-21 23:17:59.088,1500.5,1251.5,1475.5,1514.2
2026-06-21 23:17:59.089,1501.3,1251.5,1473.9,1514.2
2026-06-21 23:17:59.090,1498.9,1251.5,1474.7,1514.2
2026-06-21 23:17:59.091,1501.3,1251.5,1476.3,1514.2
2026-06-21 23:17:59.092,1501.3,1249.9,1475.5,1514.2
2026-06-21 23:17:59.093,1498.1,1248.3,1474.7,1514.2
2026-06-21 23:17:59.094,1499.7,1251.5,1476.3,1514.2
2026-06-21 23:17:59.095,1500.5,1248.3,1473.9,1514.2
2026-06-21 23:17:59.096,1500.5,1249.9,1475.5,1513.4
2026-06-21 23:17:59.097,1501.3,1252.3,1475.5,1515.8
2026-06-21 23:17:59.098,1502.1,1251.5,1475.5,1507.8
2026-06-21 23:17:59.099,1501.3,1252.3,1476.3,1511
2026-06-21 23:17:59.100,1502.1,1251.5,1475.5,1511.8
2026-06-21 23:17:59.101,1502.9,1248.3,1473.1,1514.2
2026-06-21 23:17:59.102,1502.9,1249.9,1473.1,1513.4
2026-06-21 23:17:59.103,1502.1,1253.9,1475.5,1512.6
2026-06-21 23:17:59.104,1502.9,1251.5,1475.5,1511.8
2026-06-21 23:17:59.105,1501.3,1249.1,1475.5,1514.2
2026-06-21 23:17:59.106,1501.3,1248.3,1473.9,1512.6
2026-06-21 23:17:59.107,1501.3,1249.9,1476.3,1514.2
2026-06-21 23:17:59.108,1502.1,1251.5,1477.1,1511
2026-06-21 23:17:59.109,1501.3,1251.5,1473.1,1514.2
2026-06-21 23:17:59.110,1498.9,1249.1,1471.5,1514.2
2026-06-21 23:17:59.111,1501.3,1251.5,1469.1,1511.8
2026-06-21 23:17:59.112,1501.3,1252.3,1469.1,1513.4
2026-06-21 23:17:59.113,1503.7,1249.9,1469.9,1511.8
2026-06-21 23:17:59.114,1507.8,1252.3,1473.1,1514.2
2026-06-21 23:17:59.115,1502.1,1249.1,1469.1,1513.4
2026-06-21 23:17:59.116,1502.1,1249.9,1472.3,1513.4
2026-06-21 23:17:59.117,1501.3,1249.1,1472.3,1514.2
2026-06-21 23:17:59.118,1502.1,1248.3,1473.9,1513.4
2026-06-21 23:17:59.119,1506.2,1250.7,1469.9,1514.2
2026-06-21 23:17:59.120,1506.2,1249.1,1472.3,1514.2
2026-06-21 23:17:59.121,1504.5,1251.5,1473.1,1513.4
2026-06-21 23:17:59.122,1504.5,1249.1,1476.3,1514.2
2026-06-21 23:17:59.123,1502.9,1251.5,1472.3,1514.2
2026-06-21 23:17:59.124,1502.9,1250.7,1475.5,1514.2
2026-06-21 23:17:59.125,1502.1,1251.5,1477.1,1514.2
2026-06-21 23:17:59.126,1503.7,1249.1,1476.3,1515
2026-06-21 23:17:59.127,1501.3,1252.3,1475.5,1513.4
2026-06-21 23:17:59.128,1501.3,1250.7,1473.9,1514.2
2026-06-21 23:17:59.129,1503.7,1250.7,1475.5,1514.2
2026-06-21 23:17:59.132,,1249.9,1476.3,1514.2
2026-06-21 23:17:59.128,1498.1,1248.3,1477.1,1515
2026-06-21 23:17:59.129,1493.3,1251.5,1477.9,1515
2026-06-21 23:17:59.130,1496.5,1248.3,1477.9,1514.2
2026-06-21 23:17:59.131,1498.1,1249.1,1475.5,1514.2
2026-06-21 23:17:59.132,1496.5,1251.5,1475.5,1514.2
2026-06-21 23:17:59.133,1497.3,1249.9,1477.1,1514.2
2026-06-21 23:17:59.134,1496.5,1249.9,1476.3,1515
2026-06-21 23:17:59.135,1500.5,1250.7,1473.1,1514.2
2026-06-21 23:17:59.136,1501.3,1249.9,1476.3,1514.2
2026-06-21 23:17:59.137,1501.3,1250.7,1476.3,1517.4
2026-06-21 23:17:59.138,1500.5,1250.7,1476.3,1514.2
2026-06-21 23:17:59.139,1501.3,1251.5,1476.3,1513.4
2026-06-21 23:17:59.140,1501.3,1252.3,1476.3,1514.2
2026-06-21 23:17:59.141,1501.3,1251.5,1475.5,1514.2
2026-06-21 23:17:59.142,1502.1,1251.5,1474.7,1514.2
2026-06-21 23:17:59.143,1502.9,1251.5,1476.3,1514.2
2026-06-21 23:17:59.144,1501.3,1251.5,1476.3,
2026-06-21 23:17:59.145,1502.1,1251.5,1476.3,1514.2
2026-06-21 23:17:59.146,1502.9,1250.7,1476.3,1511
2026-06-21 23:17:59.147,1502.1,1252.3,1473.9,1513.4
2026-06-21 23:17:59.148,1502.9,1249.1,1476.3,1512.6
2026-06-21 23:17:59.149,1506.2,1251.5,1475.5,1514.2
2026-06-21 23:17:59.150,1504.5,1249.1,1474.7,1512.6
2026-06-21 23:17:59.151,1503.7,1250.7,1476.3,1511.8
2026-06-21 23:17:59.152,1502.1,1251.5,1475.5,1511.8
2026-06-21 23:17:59.153,1502.9,1254.7,1476.3,1512.6
2026-06-21 23:17:59.154,1502.9,1251.5,1474.7,1513.4
2026-06-21 23:17:59.155,1502.9,1252.3,1475.5,1514.2
2026-06-21 23:17:59.156,1502.1,1251.5,,1514.2
2026-06-21 23:17:59.157,1502.9,1252.3,1473.9,1514.2
2026-06-21 23:17:59.158,1501.3,1249.9,1469.1,1512.6
2026-06-21 23:17:59.159,1504.5,1252.3,1473.1,1515.8
2026-06-21 23:17:59.160,1504.5,1249.1,1471.5,1514.2
2026-06-21 23:17:59.161,1507,1252.3,1472.3,1515.8
2026-06-21 23:17:59.162,1509.4,1251.5,1473.1,1514.2
2026-06-21 23:17:59.163,1510.2,1253.9,1473.9,1514.2
2026-06-21 23:17:59.164,1504.5,1249.9,1474.7,1514.2
2026-06-21 23:17:59.165,1506.2,1252.3,1473.9,1514.2
2026-06-21 23:17:59.166,1506.2,1251.5,1469.9,1512.6
2026-06-21 23:17:59.167,1510.2,1252.3,1473.9,1514.2
2026-06-21 23:17:59.168,1502.1,1250.7,1473.9,1514.2
2026-06-21 23:17:59.169,1507,1251.5,1475.5,1512.6
2026-06-21 23:17:59.170,1507,1253.1,1473.9,1511.8
2026-06-21 23:17:59.171,1506.2,1252.3,1476.3,1515.8
2026-06-21 23:17:59.172,1506.2,1251.5,1476.3,1513.4
2026-06-21 23:17:59.173,1505.3,1249.1,1475.5,1514.2
2026-06-21 23:17:59.174,1506.2,1253.9,1475.5,1515
2026-06-21 23:17:59.175,1507,,1473.9,1514.2
2026-06-21 23:17:59.176,1505.3,1240.2,1473.1,1514.2
2026-06-21 23:17:59.177,1502.9,1252.3,1475.5,1513.4
2026-06-21 23:17:59.164,1502.1,1251.5,1474.7,1513.4
2026-06-21 23:17:59.165,1500.5,1249.1,1476.3,1514.2
2026-06-21 23:17:59.166,1501.3,1249.9,1475.5,1515
2026-06-21 23:17:59.167,1501.3,1247.5,1473.9,1513.4
2026-06-21 23:17:59.168,1499.7,1249.1,1471.5,1515.8
2026-06-21 23:17:59.169,1501.3,1246.7,1473.9,1514.2
2026-06-21 23:17:59.170,1502.9,1249.9,1477.1,1514.2
2026-06-21 23:17:59.171,1502.1,1249.9,1474.7,1514.2
2026-06-21 23:17:59.172,1502.1,1250.7,1475.5,1514.2
2026-06-21 23:17:59.173,1502.9,1252.3,1475.5,1515
2026-06-21 23:17:59.174,1503.7,1248.3,1473.1,1514.2
2026-06-21 23:17:59.175,1502.9,1249.9,1475.5,1514.2
2026-06-21 23:17:59.176,1502.1,1251.5,1476.3,1515.8
2026-06-21 23:17:59.177,1501.3,1249.9,1474.7,1515.8
2026-06-21 23:17:59.178,1501.3,1253.9,1476.3,1514.2
2026-06-21 23:17:59.179,1502.1,1249.1,1477.9,1514.2
2026-06-21 23:17:59.180,1502.9,1254.7,1475.5,1515.8
2026-06-21 23:17:59.181,1504.5,1251.5,1474.7,1514.2
2026-06-21 23:17:59.182,1504.5,1251.5,1474.7,1509.4
2026-06-21 23:17:59.183,1502.1,1251.5,1473.9,1511.8
2026-06-21 23:17:59.184,1502.1,1250.7,1476.3,1514.2
2026-06-21 23:17:59.185,1502.1,1255.5,1476.3,1513.4
2026-06-21 23:17:59.186,1502.1,1250.7,1475.5,1511.8
2026-06-21 23:17:59.187,1502.1,1253.1,1474.7,1512.6
2026-06-21 23:17:59.188,1502.9,1256.3,1474.7,1513.4
2026-06-21 23:17:59.189,1502.9,1251.5,1476.3,1514.2
2026-06-21 23:17:59.190,1501.3,1252.3,1472.3,1512.6
2026-06-21 23:17:59.191,1503.7,1252.3,1475.5,1512.6
2026-06-21 23:17:59.192,1505.3,1252.3,1475.5,1512.6
2026-06-21 23:17:59.193,1505.3,1251.5,1469.9,1513.4
2026-06-21 23:17:59.194,1503.7,1251.5,1473.9,1513.4
2026-06-21 23:17:59.195,1502.9,1252.3,1473.9,1514.2
2026-06-21 23:17:59.196,1502.9,1252.3,1472.3,1515
2026-06-21 23:17:59.197,1507.8,1251.5,1474.7,1515
2026-06-21 23:17:59.198,1502.9,1251.5,1473.1,1513.4
2026-06-21 23:17:59.199,1502.1,1251.5,1469.1,1514.2
2026-06-21 23:17:59.200,1502.1,1255.5,1473.1,1514.2
2026-06-21 23:17:59.201,1502.1,1251.5,1469.9,1514.2
2026-06-21 23:17:59.202,1502.1,1251.5,1473.9,1514.2
2026-06-21 23:17:59.203,1502.1,1249.9,1473.9,1514.2
2026-06-21 23:17:59.204,1502.1,1251.5,1473.1,1514.2
2026-06-21 23:17:59.205,1508.6,1254.7,1473.9,1514.2
2026-06-21 23:17:59.206,1503.7,1249.9,1476.3,1514.2
2026-06-21 23:17:59.207,1504.5,1250.7,1476.3,1512.6
2026-06-21 23:17:59.208,1501.3,1251.5,1476.3,1511
2026-06-21 23:17:59.209,1502.1,1254.7,1474.7,1511.8
2026-06-21 23:17:59.210,1506.2,1253.1,1476.3,1512.6
2026-06-21 23:17:59.211,1501.3,1251.5,1473.1,1511
2026-06-21 23:17:59.212,1501.3,1251.5,1473.1,1514.2
2026-06-21 23:17:59.213,1502.1,1249.9,1475.5,1514.2
2026-06-21 23:17:59.232,1506.2,1250.7,1473.9,1514.2
2026-06-21 23:17:59.233,1497.3,1249.1,1475.5,1514.2
2026-06-21 23:17:59.234,1499.7,1248.3,1473.1,1515.8
2026-06-21 23:17:59.235,1501.3,1248.3,1475.5,1514.2
2026-06-21 23:17:59.236,1498.9,1249.9,1476.3,1514.2
2026-06-21 23:17:59.237,1501.3,1251.5,1475.5,1514.2
2026-06-21 23:17:59.238,1502.1,1250.7,1473.9,1515
2026-06-21 23:17:59.239,1504.5,1251.5,1474.7,1514.2
2026-06-21 23:17:59.240,1502.9,1248.3,1473.9,1513.4
2026-06-21 23:17:59.241,1502.1,1249.9,1474.7,1514.2
2026-06-21 23:17:59.242,1501.3,1249.9,1476.3,1516.6
2026-06-21 23:17:59.243,1502.9,1249.9,1475.5,1515
2026-06-21 23:17:59.244,1502.9,1250.7,1475.5,1514.2
2026-06-21 23:17:59.245,1504.5,1249.1,1476.3,1515.8
2026-06-21 23:17:59.246,1502.1,1251.5,1474.7,1515
2026-06-21 23:17:59.247,1504.5,1248.3,1473.9,1513.4
2026-06-21 23:17:59.248,1502.1,1249.9,1475.5,1514.2
2026-06-21 23:17:59.249,1502.1,1251.5,1476.3,1514.2
2026-06-21 23:17:59.250,1506.2,1251.5,1473.9,1511.8
2026-06-21 23:17:59.251,1506.2,1249.9,1473.9,1511
2026-06-21 23:17:59.252,1502.9,1249.9,1476.3,1510.2
2026-06-21 23:17:59.253,1504.5,1251.5,1475.5,1512.6
2026-06-21 23:17:59.254,1505.3,1249.9,1474.7,1513.4
2026-06-21 23:17:59.255,1502.9,1249.1,1475.5,1514.2
2026-06-21 23:17:59.256,1502.1,1251.5,1473.9,1514.2
2026-06-21 23:17:59.257,1501.3,1249.9,1474.7,1514.2
2026-06-21 23:17:59.258,1499.7,1249.9,1474.7,1514.2
2026-06-21 23:17:59.259,1501.3,1253.9,1473.1,1514.2
2026-06-21 23:17:59.260,1501.3,1249.9,1474.7,1514.2
2026-06-21 23:17:59.261,1500.5,1249.9,1469.9,1514.2
2026-06-21 23:17:59.262,1510.2,1248.3,1469.9,1514.2
2026-06-21 23:17:59.263,1510.2,1247.5,1473.9,1512.6
2026-06-21 23:17:59.264,1507,1251.5,1471.5,1514.2
2026-06-21 23:17:59.265,1507,1251.5,1469.1,1514.2
2026-06-21 23:17:59.266,1509.4,1249.1,1474.7,1514.2
2026-06-21 23:17:59.267,1512.6,1253.9,1472.3,1514.2
2026-06-21 23:17:59.268,1511.8,1251.5,1472.3,1512.6
2026-06-21 23:17:59.269,1510.2,1248.3,1473.1,1514.2
2026-06-21 23:17:59.270,1504.5,1251.5,1474.7,1511.8
2026-06-21 23:17:59.271,1507,1251.5,1473.9,1513.4
2026-06-21 23:17:59.272,1502.9,1251.5,1473.9,1511.8
2026-06-21 23:17:59.273,1504.5,1248.3,1473.1,1514.2
2026-06-21 23:17:59.274,1508.6,1252.3,1473.1,1512.6
2026-06-21 23:17:59.275,1506.2,1248.3,1473.1,1513.4
2026-06-21 23:17:59.276,1508.6,1250.7,1473.1,1513.4
2026-06-21 23:17:59.277,1505.3,1249.9,1475.5,1511.8
2026-06-21 23:17:59.278,1507.8,1249.9,1474.7,1514.2
2026-06-21 23:17:59.279,1506.2,1249.9,1471.5,1511.8
2026-06-21 23:17:59.280,1505.3,1250.7,1475.5,1513.4
2026-06-21 23:17:59.281,1507,1246.7,1476.3,1514.2
2026-06-21 23:17:59.264,1504.5,1248.3,1475.5,1514.2
2026-06-21 23:17:59.265,1501.3,1249.9,1475.5,1515
2026-06-21 23:17:59.266,1503.7,1249.9,1476.3,1514.2
2026-06-21 23:17:59.267,1502.9,1249.1,1475.5,1514.2
2026-06-21 23:17:59.268,1500.5,1251.5,1477.1,1515.8
2026-06-21 23:17:59.269,1501.3,1248.3,1476.3,1517.4
2026-06-21 23:17:59.270,1501.3,1249.9,1475.5,1514.2
2026-06-21 23:17:59.271,1501.3,1250.7,1473.9,1515
2026-06-21 23:17:59.272,1499.7,1249.9,1473.9,1514.2
2026-06-21 23:17:59.273,1501.3,1249.9,1475.5,1514.2
2026-06-21 23:17:59.274,1501.3,1252.3,1475.5,1514.2
2026-06-21 23:17:59.275,1500.5,1251.5,1475.5,1514.2
2026-06-21 23:17:59.276,1502.9,1252.3,1473.9,1515.8
2026-06-21 23:17:59.277,1502.1,1248.3,1474.7,1514.2
2026-06-21 23:17:59.278,1502.1,1249.9,1476.3,1514.2
2026-06-21 23:17:59.279,1501.3,1251.5,1475.5,1514.2
2026-06-21 23:17:59.280,1501.3,1251.5,1473.9,1514.2
2026-06-21 23:17:59.281,1500.5,1254.7,1477.1,1511.8
2026-06-21 23:17:59.282,1504.5,1253.1,1477.9,1511
2026-06-21 23:17:59.283,1511.8,1252.3,1477.1,1510.2
2026-06-21 23:17:59.284,1510.2,1252.3,1476.3,1511.8
2026-06-21 23:17:59.285,1502.9,1253.9,1479.6,1514.2
2026-06-21 23:17:59.286,1503.7,1249.9,1475.5,1513.4
2026-06-21 23:17:59.287,1503.7,1251.5,1476.3,1514.2
2026-06-21 23:17:59.288,1502.1,1250.7,1474.7,1513.4
2026-06-21 23:17:59.289,1501.3,1251.5,1476.3,1512.6
2026-06-21 23:17:59.290,1504.5,1251.5,1473.1,1514.2
2026-06-21 23:17:59.291,1503.7,1251.5,1475.5,1514.2
2026-06-21 23:17:59.292,1502.1,1249.9,1476.3,1514.2
2026-06-21 23:17:59.293,1502.1,1255.5,1475.5,1514.2
2026-06-21 23:17:59.294,1501.3,1253.9,1472.3,1514.2
2026-06-21 23:17:59.295,1501.3,1249.9,1473.9,1514.2
2026-06-21 23:17:59.296,1501.3,1255.5,1472.3,1514.2
2026-06-21 23:17:59.297,1498.9,1251.5,1472.3,1514.2
2026-06-21 23:17:59.298,1494.9,1253.1,1473.9,1514.2
2026-06-21 23:17:59.299,1498.9,1251.5,1473.9,1513.4
2026-06-21 23:17:59.300,1494.9,1252.3,1469.9,1514.2
2026-06-21 23:17:59.301,1500.5,1249.9,1473.9,1514.2
2026-06-21 23:17:59.302,1500.5,1251.5,1473.9,1512.6
2026-06-21 23:17:59.303,1501.3,1249.9,1473.9,1514.2
2026-06-21 23:17:59.304,1502.1,1249.1,1473.1,1514.2
2026-06-21 23:17:59.305,1506.2,1251.5,1472.3,1514.2
2026-06-21 23:17:59.306,1507.8,1253.9,1472.3,1515
2026-06-21 23:17:59.307,1506.2,1252.3,1473.9,1514.2
2026-06-21 23:17:59.308,1505.3,1251.5,1474.7,1514.2
2026-06-21 23:17:59.309,1502.1,1251.5,1472.3,1514.2
2026-06-21 23:17:59.310,1501.3,1253.9,1475.5,1514.2
2026-06-21 23:17:59.311,1501.3,1251.5,1475.5,1514.2
2026-06-21 23:17:59.312,1501.3,1251.5,1474.7,1514.2
2026-06-21 23:17:59.313,1500.5,1251.5,1474.7,1514.2
2026-06-21 23:17:59.330,1498.9,1250.7,1475.5,1514.2
2026-06-21 23:17:59.331,1491.6,1248.3,1473.9,1514.2
2026-06-21 23:17:59.332,1498.1,1251.5,1475.5,1514.2
2026-06-21 23:17:59.333,1499.7,1244.2,1476.3,1514.2
2026-06-21 23:17:59.334,1501.3,1249.9,1475.5,1514.2
2026-06-21 23:17:59.335,1502.9,1251.5,1474.7,1515.8
2026-06-21 23:17:59.336,1501.3,1249.9,1475.5,1514.2
2026-06-21 23:17:59.337,1498.9,1251.5,1477.1,1514.2
2026-06-21 23:17:59.338,1499.7,1250.7,1476.3,1515
2026-06-21 23:17:59.339,1501.3,1246.7,1475.5,1515.8
2026-06-21 23:17:59.340,1500.5,1248.3,1476.3,1515.8
2026-06-21 23:17:59.341,1500.5,1250.7,1477.1,1515.8
2026-06-21 23:17:59.342,1498.9,1252.3,1476.3,1514.2
2026-06-21 23:17:59.343,1500.5,1251.5,1472.3,1515
2026-06-21 23:17:59.344,1501.3,1249.9,1475.5,1515
2026-06-21 23:17:59.345,1505.3,1253.9,1476.3,1515
2026-06-21 23:17:59.346,1502.1,1251.5,1476.3,1515.8
2026-06-21 23:17:59.347,1505.3,1251.5,1473.9,1516.6
2026-06-21 23:17:59.348,1502.1,1249.9,1476.3,1513.4
2026-06-21 23:17:59.349,1502.1,1249.9,1477.9,1513.4
2026-06-21 23:17:59.350,1501.3,1252.3,1475.5,1512.6
2026-06-21 23:17:59.351,1501.3,1251.5,1476.3,1511.8
2026-06-21 23:17:59.352,1501.3,1251.5,1477.1,1513.4
2026-06-21 23:17:59.353,1501.3,1251.5,1476.3,1513.4
2026-06-21 23:17:59.354,1501.3,1250.7,1474.7,1513.4
2026-06-21 23:17:59.355,1501.3,1252.3,1473.1,1511.8
2026-06-21 23:17:59.356,1502.1,1250.7,1476.3,1514.2
2026-06-21 23:17:59.357,1501.3,1251.5,1476.3,1514.2
2026-06-21 23:17:59.358,1501.3,1253.1,1477.9,1514.2
2026-06-21 23:17:59.359,1501.3,1254.7,1473.9,1514.2
2026-06-21 23:17:59.360,1501.3,1252.3,1477.9,1514.2
2026-06-21 23:17:59.361,1501.3,1251.5,1473.1,1512.6
2026-06-21 23:17:59.362,1501.3,1252.3,1473.1,1514.2
2026-06-21 23:17:59.363,1501.3,1252.3,1473.9,1513.4
2026-06-21 23:17:59.364,1501.3,1252.3,1471.5,1514.2
2026-06-21 23:17:59.365,1501.3,1252.3,1472.3,1514.2
2026-06-21 23:17:59.366,1501.3,1254.7,1471.5,1514.2
2026-06-21 23:17:59.367,1501.3,1251.5,1473.1,1515.8
2026-06-21 23:17:59.368,1501.3,1253.9,1475.5,1514.2
2026-06-21 23:17:59.369,1502.1,1253.1,1472.3,1513.4
2026-06-21 23:17:59.370,1502.9,1249.9,1473.9,1512.6
2026-06-21 23:17:59.371,1511.8,1250.7,1473.9,1515
2026-06-21 23:17:59.372,1507,1253.9,1474.7,1515
2026-06-21 23:17:59.373,1504.5,1254.7,1474.7,1515.8
2026-06-21 23:17:59.374,1502.9,1252.3,1473.9,1514.2
2026-06-21 23:17:59.375,1507,1251.5,1469.9,1514.2
2026-06-21 23:17:59.376,1502.1,1249.9,1473.1,1514.2
2026-06-21 23:17:59.377,1502.1,1251.5,1473.9,1514.2
2026-06-21 23:17:59.378,1504.5,1253.1,1474.7,1515
2026-06-21 23:17:59.379,1502.9,1249.1,1475.5,1515
2026-06-21 23:17:59.373,,1250.7,1473.9,1515.8
2026-06-21 23:17:59.375,1498.1,1250.7,1475.5,1515
2026-06-21 23:17:59.376,1497.3,1250.7,1474.7,1515
2026-06-21 23:17:59.377,1496.5,1249.1,1477.1,1514.2
2026-06-21 23:17:59.378,1498.9,1249.9,1475.5,1514.2
2026-06-21 23:17:59.379,1498.1,1251.5,1477.1,1514.2
2026-06-21 23:17:59.380,1498.1,1248.3,1473.9,1515
2026-06-21 23:17:59.381,1496.5,1251.5,1476.3,1515.8
2026-06-21 23:17:59.382,1501.3,1252.3,1476.3,1517.4
2026-06-21 23:17:59.383,1499.7,1251.5,1475.5,1515.8
2026-06-21 23:17:59.384,1501.3,1257.1,1477.9,1514.2
2026-06-21 23:17:59.385,1501.3,1250.7,1475.5,1515
2026-06-21 23:17:59.386,1499.7,1252.3,1476.3,1515
2026-06-21 23:17:59.387,1499.7,1256.3,1474.7,1515.8
2026-06-21 23:17:59.388,1497.3,1251.5,1475.5,1515
2026-06-21 23:17:59.389,1494.9,1248.3,1473.9,1515.8
2026-06-21 23:17:59.390,1494.9,1251.5,1473.9,1515
2026-06-21 23:17:59.391,1494.9,1251.5,1475.5,
2026-06-21 23:17:59.392,1497.3,1253.9,1476.3,1513.4
2026-06-21 23:17:59.393,1509.4,1252.3,1476.3,1511.8
2026-06-21 23:17:59.394,1504.5,1250.7,1477.1,1514.2
2026-06-21 23:17:59.395,1501.3,1251.5,1475.5,1512.6
2026-06-21 23:17:59.396,1500.5,1249.1,1473.9,1513.4
2026-06-21 23:17:59.397,1501.3,1251.5,1473.9,1512.6
2026-06-21 23:17:59.398,1502.1,1251.5,1475.5,1514.2
2026-06-21 23:17:59.399,1502.1,1251.5,1475.5,1511.8
2026-06-21 23:17:59.400,1502.9,1254.7,1476.3,1512.6
2026-06-21 23:17:59.401,1504.5,1255.5,1475.5,1514.2
2026-06-21 23:17:59.402,1500.5,1253.1,1476.3,1514.2
2026-06-21 23:17:59.403,1498.9,1251.5,,1513.4
2026-06-21 23:17:59.404,1501.3,1251.5,1477.9,1514.2
2026-06-21 23:17:59.405,1497.3,1251.5,1472.3,1514.2
2026-06-21 23:17:59.406,1496.5,1252.3,1473.9,1514.2
2026-06-21 23:17:59.407,1498.1,1253.9,1472.3,1514.2
2026-06-21 23:17:59.408,1498.9,1253.9,1473.1,1515.8
2026-06-21 23:17:59.409,1500.5,1252.3,1473.1,1514.2
2026-06-21 23:17:59.410,1499.7,1252.3,1473.9,1514.2
2026-06-21 23:17:59.411,1498.9,1252.3,1472.3,1514.2
2026-06-21 23:17:59.412,1501.3,1252.3,1472.3,1514.2
2026-06-21 23:17:59.413,1501.3,1249.9,1473.9,1515
2026-06-21 23:17:59.414,1499.7,1249.9,1473.9,1514.2
2026-06-21 23:17:59.415,1498.1,1251.5,1473.1,1513.4
2026-06-21 23:17:59.416,1498.9,1254.7,1474.7,1513.4
2026-06-21 23:17:59.417,1498.9,1253.9,1474.7,1515
2026-06-21 23:17:59.418,1497.3,1252.3,1475.5,1515.8
2026-06-21 23:17:59.419,1497.3,1255.5,1474.7,1514.2
2026-06-21 23:17:59.420,1498.1,1251.5,1476.3,1514.2
2026-06-21 23:17:59.421,1498.1,1251.5,1473.1,1515
2026-06-21 23:17:59.422,1495.7,1253.9,1475.5,1514.2
2026-06-21 23:17:59.423,1494.9,1249.9,1476.3,1514.2
2026-06-21 23:17:59.424,1491.6,1249.9,1477.9,1513.4
2026-06-21 23:17:59.430,1495.7,1248.3,1476.3,1514.2
2026-06-21 23:17:59.431,1483.6,1247.5,1476.3,1513.4
2026-06-21 23:17:59.432,1486,1249.1,1475.5,1514.2
2026-06-21 23:17:59.433,1492.5,1249.9,1475.5,1515.8
2026-06-21 23:17:59.434,1498.1,1250.7,1473.9,1514.2
2026-06-21 23:17:59.435,1501.3,1247.5,1473.9,1514.2
2026-06-21 23:17:59.436,1499.7,1253.1,1473.9,1515.8
2026-06-21 23:17:59.437,1501.3,1251.5,1475.5,1515
2026-06-21 23:17:59.438,1498.1,1251.5,1477.1,1514.2
2026-06-21 23:17:59.439,1494.9,1248.3,1473.1,1514.2
2026-06-21 23:17:59.440,1496.5,1251.5,1474.7,1514.2
2026-06-21 23:17:59.441,1500.5,1253.1,1475.5,1514.2
2026-06-21 23:17:59.442,1500.5,1249.9,1476.3,1515
2026-06-21 23:17:59.443,1498.1,1254.7,1476.3,1514.2
2026-06-21 23:17:59.444,1498.1,1248.3,1474.7,1515
2026-06-21 23:17:59.445,1498.1,1250.7,1476.3,1514.2
2026-06-21 23:17:59.446,1496.5,1249.9,1476.3,1514.2
2026-06-21 23:17:59.447,1498.9,1249.9,1475.5,1511.8
2026-06-21 23:17:59.448,1496.5,1249.9,1475.5,1511.8
2026-06-21 23:17:59.449,1498.9,1249.9,1476.3,1512.6
2026-06-21 23:17:59.450,1494.9,1249.1,1475.5,1512.6
2026-06-21 23:17:59.451,1501.3,1251.5,1476.3,1513.4
2026-06-21 23:17:59.452,1498.1,1252.3,1476.3,1513.4
2026-06-21 23:17:59.453,1496.5,1251.5,1477.9,1514.2
2026-06-21 23:17:59.454,1498.9,1250.7,1476.3,1514.2
2026-06-21 23:17:59.455,1498.9,1249.9,1475.5,1514.2
2026-06-21 23:17:59.456,1497.3,1250.7,1475.5,1513.4
2026-06-21 23:17:59.457,1496.5,1253.9,1475.5,1514.2
2026-06-21 23:17:59.458,1498.1,1250.7,1473.9,1513.4
2026-06-21 23:17:59.459,1497.3,1253.9,1469.1,1512.6
2026-06-21 23:17:59.460,1494.9,1252.3,1472.3,1514.2
2026-06-21 23:17:59.461,1494.9,1252.3,1469.9,1513.4
2026-06-21 23:17:59.462,1498.1,1252.3,1469.9,1515
2026-06-21 23:17:59.463,1498.9,1252.3,1473.9,1512.6
2026-06-21 23:17:59.464,1498.1,1251.5,1474.7,1514.2
2026-06-21 23:17:59.465,1501.3,1253.9,1473.9,1511
2026-06-21 23:17:59.466,1502.9,1253.1,1473.1,1514.2
2026-06-21 23:17:59.467,1501.3,1252.3,1475.5,1513.4
2026-06-21 23:17:59.468,1502.1,1250.7,1472.3,1511.8
2026-06-21 23:17:59.469,1500.5,1253.9,1475.5,1511.8
2026-06-21 23:17:59.470,1501.3,1251.5,1475.5,1513.4
2026-06-21 23:17:59.471,1502.1,1251.5,1475.5,1514.2
2026-06-21 23:17:59.472,1501.3,1249.9,1473.9,1514.2
2026-06-21 23:17:59.473,1502.1,1250.7,1473.9,1514.2
2026-06-21 23:17:59.474,1502.1,1253.9,1474.7,1514.2
2026-06-21 23:17:59.475,1501.3,1251.5,1477.1,1514.2
2026-06-21 23:17:59.476,1502.1,1250.7,1474.7,1514.2
2026-06-21 23:17:59.477,1501.3,1249.9,1473.9,1514.2
2026-06-21 23:17:59.478,1502.9,1249.9,1475.5,1514.2
2026-06-21 23:17:59.479,1502.1,1251.5,1477.9,1514.2
2026-06-21 23:17:59.473,1502.1,1249.1,1475.5,1515.8
2026-06-21 23:17:59.474,1501.3,1249.1,1476.3,1514.2
2026-06-21 23:17:59.475,1498.9,1251.5,1475.5,1515.8
2026-06-21 23:17:59.476,1501.3,1250.7,1475.5,1514.2
2026-06-21 23:17:59.477,1501.3,1251.5,1474.7,1514.2
2026-06-21 23:17:59.478,1498.9,1249.1,1473.9,1515
2026-06-21 23:17:59.479,1498.1,1248.3,1476.3,1514.2
2026-06-21 23:17:59.480,1498.9,1251.5,1477.1,1514.2
2026-06-21 23:17:59.481,1502.1,1249.9,1473.1,1514.2
2026-06-21 23:17:59.482,1500.5,1251.5,1476.3,1514.2
2026-06-21 23:17:59.483,1501.3,1249.9,1474.7,1515.8
2026-06-21 23:17:59.484,1501.3,1249.1,1475.5,1514.2
2026-06-21 23:17:59.485,1501.3,1251.5,1473.9,1512.6
2026-06-21 23:17:59.486,1502.9,1251.5,1475.5,1513.4
2026-06-21 23:17:59.487,1502.1,1250.7,1475.5,1512.6
2026-06-21 23:17:59.488,1502.1,1251.5,1474.7,1514.2
2026-06-21 23:17:59.489,1502.1,1253.9,1473.1,1514.2
2026-06-21 23:17:59.490,1502.9,1250.7,1476.3,1513.4
2026-06-21 23:17:59.491,1505.3,1254.7,1475.5,1511.8
2026-06-21 23:17:59.492,1497.3,1250.7,1475.5,1511.8
2026-06-21 23:17:59.493,1501.3,1253.9,1475.5,1511
2026-06-21 23:17:59.494,1505.3,1251.5,1476.3,1513.4
2026-06-21 23:17:59.495,1508.6,1250.7,1475.5,1513.4
2026-06-21 23:17:59.496,1508.6,1251.5,1477.9,1513.4
2026-06-21 23:17:59.497,1510.2,1252.3,1476.3,1513.4
2026-06-21 23:17:59.498,1511.8,1253.1,1473.9,1511.8
2026-06-21 23:17:59.499,1511.8,1256.3,1476.3,1512.6
2026-06-21 23:17:59.500,1515,1251.5,1476.3,1512.6
2026-06-21 23:17:59.501,1511,1251.5,1477.1,1512.6
2026-06-21 23:17:59.502,1511,1252.3,1476.3,1514.2
2026-06-21 23:17:59.503,1501.3,1251.5,1469.9,1514.2
2026-06-21 23:17:59.504,1501.3,1253.9,1469.9,1512.6
2026-06-21 23:17:59.505,1500.5,1253.9,1472.3,1513.4
2026-06-21 23:17:59.506,1500.5,1253.9,1469.1,1515
2026-06-21 23:17:59.507,1502.1,1250.7,1473.9,1514.2
2026-06-21 23:17:59.508,1506.2,1252.3,1471.5,1514.2
2026-06-21 23:17:59.509,1507.8,1252.3,1472.3,1515
2026-06-21 23:17:59.510,1511,1251.5,1473.9,1514.2
2026-06-21 23:17:59.511,1509.4,1251.5,1473.9,1513.4
2026-06-21 23:17:59.512,1511,1251.5,1473.9,1514.2
2026-06-21 23:17:59.513,1504.5,1251.5,1475.5,1514.2
2026-06-21 23:17:59.514,1506.2,1252.3,1473.9,1514.2
2026-06-21 23:17:59.515,1504.5,1253.1,1472.3,1514.2
2026-06-21 23:17:59.516,1506.2,1254.7,1473.9,1514.2
2026-06-21 23:17:59.517,1506.2,1255.5,1473.1,1514.2
2026-06-21 23:17:59.518,1504.5,1249.9,1476.3,1514.2
2026-06-21 23:17:59.519,1503.7,1251.5,1475.5,1514.2
2026-06-21 23:17:59.520,1501.3,1250.7,1473.9,1515
2026-06-21 23:17:59.521,1502.1,1249.1,1476.3,1511.8
2026-06-21 23:17:59.522,1501.3,1251.5,1473.9,1515
2026-06-21 23:17:59.531,1504.5,1251.5,1473.1,1515
2026-06-21 23:17:59.532,1499.7,1250.7,1477.9,1514.2
2026-06-21 23:17:59.533,1495.7,1249.9,1476.3,1513.4
2026-06-21 23:17:59.534,1494.1,1247.5,1474.7,1517.4
2026-06-21 23:17:59.535,1496.5,1248.3,1473.9,1516.6
2026-06-21 23:17:59.536,1494.1,1248.3,1475.5,1515.8
2026-06-21 23:17:59.537,1498.1,1251.5,1474.7,1514.2
2026-06-21 23:17:59.538,1498.1,1248.3,1475.5,1515.8
2026-06-21 23:17:59.539,1496.5,1251.5,1475.5,1514.2
2026-06-21 23:17:59.540,1494.9,1249.9,1476.3,1515
2026-06-21 23:17:59.541,1496.5,1251.5,1477.1,1515
2026-06-21 23:17:59.542,1498.9,1251.5,1475.5,1514.2
2026-06-21 23:17:59.543,1498.1,1250.7,1476.3,1514.2
2026-06-21 23:17:59.544,1497.3,1251.5,1477.1,1514.2
2026-06-21 23:17:59.545,1496.5,1251.5,1476.3,1514.2
2026-06-21 23:17:59.546,1497.3,1251.5,1473.9,1514.2
2026-06-21 23:17:59.547,1497.3,1251.5,1473.9,1514.2
2026-06-21 23:17:59.548,1498.9,1251.5,1474.7,
2026-06-21 23:17:59.549,1499.7,1251.5,1475.5,1514.2
2026-06-21 23:17:59.550,1500.5,1249.9,1473.1,1510.2
2026-06-21 23:17:59.551,1501.3,1250.7,1475.5,1510.2
2026-06-21 23:17:59.552,1501.3,1253.1,1476.3,1513.4
2026-06-21 23:17:59.553,1498.9,1248.3,1473.9,1513.4
2026-06-21 23:17:59.554,1498.1,1251.5,1475.5,1511
2026-06-21 23:17:59.555,1498.1,1253.9,1475.5,1510.2
2026-06-21 23:17:59.556,1499.7,1251.5,1475.5,1512.6
2026-06-21 23:17:59.557,1501.3,1251.5,1475.5,1511.8
2026-06-21 23:17:59.558,1501.3,1250.7,1475.5,1513.4
2026-06-21 23:17:59.559,1501.3,1251.5,1476.3,1514.2
2026-06-21 23:17:59.560,1499.7,1251.5,,1514.2
2026-06-21 23:17:59.561,1501.3,1251.5,1475.5,1514.2
2026-06-21 23:17:59.562,1502.1,1249.9,1471.5,1514.2
2026-06-21 23:17:59.563,1502.1,1250.7,1471.5,1514.2
2026-06-21 23:17:59.564,1500.5,1249.1,1473.9,1514.2
2026-06-21 23:17:59.565,1501.3,1250.7,1473.9,1515
2026-06-21 23:17:59.566,1500.5,1252.3,1471.5,1514.2
2026-06-21 23:17:59.567,1500.5,1249.9,1475.5,1513.4
2026-06-21 23:17:59.568,1500.5,1250.7,1473.9,1514.2
2026-06-21 23:17:59.569,1498.1,1249.9,1475.5,1514.2
2026-06-21 23:17:59.570,1497.3,1251.5,1476.3,1514.2
2026-06-21 23:17:59.571,1498.1,1251.5,1473.9,1514.2
2026-06-21 23:17:59.572,1500.5,1251.5,1476.3,1514.2
2026-06-21 23:17:59.573,1501.3,1251.5,1476.3,1515
2026-06-21 23:17:59.574,1501.3,1254.7,1475.5,1515.8
2026-06-21 23:17:59.575,1501.3,1252.3,1474.7,1514.2
2026-06-21 23:17:59.576,1501.3,1249.9,1475.5,1514.2
2026-06-21 23:17:59.577,1499.7,1249.9,1474.7,1513.4
2026-06-21 23:17:59.578,1501.3,1249.9,1475.5,1513.4
2026-06-21 23:17:59.579,1511,1249.9,1474.7,1514.2
2026-06-21 23:17:59.580,1508.6,1249.1,1476.3,1514.2
2026-06-21 23:17:59.572,,1245.9,1475.5,1512.6
2026-06-21 23:17:59.572,1504.5,1249.9,1477.1,1513.4
2026-06-21 23:17:59.573,1501.3,1248.3,1476.3,1514.2
2026-06-21 23:17:59.574,1501.3,1249.9,1476.3,1514.2
2026-06-21 23:17:59.575,1500.5,1248.3,1477.9,1514.2
2026-06-21 23:17:59.576,1501.3,1249.9,1477.9,1514.2
2026-06-21 23:17:59.577,1501.3,1249.9,1475.5,1514.2
2026-06-21 23:17:59.578,1499.7,1250.7,1477.1,1514.2
2026-06-21 23:17:59.579,1501.3,1248.3,1477.9,1514.2
2026-06-21 23:17:59.580,1498.9,1251.5,1477.9,1514.2
2026-06-21 23:17:59.581,1498.1,1250.7,1474.7,1514.2
2026-06-21 23:17:59.582,1500.5,1250.7,1476.3,1514.2
2026-06-21 23:17:59.583,1502.1,1249.1,1476.3,1513.4
2026-06-21 23:17:59.584,1508.6,1249.1,1476.3,1513.4
2026-06-21 23:17:59.585,1506.2,1251.5,1476.3,1514.2
2026-06-21 23:17:59.586,1506.2,1251.5,1474.7,1514.2
2026-06-21 23:17:59.587,1505.3,1251.5,1475.5,1514.2
2026-06-21 23:17:59.588,1504.5,1249.9,1476.3,1514.2
2026-06-21 23:17:59.589,1502.1,1250.7,1475.5,1510.2
2026-06-21 23:17:59.590,1505.3,1253.9,1473.9,1511
2026-06-21 23:17:59.591,1502.1,1252.3,1475.5,1511
2026-06-21 23:17:59.592,1502.9,1251.5,1477.1,1513.4
2026-06-21 23:17:59.593,1502.9,1251.5,1477.1,1510.2
2026-06-21 23:17:59.594,1502.9,1251.5,1476.3,1513.4
2026-06-21 23:17:59.595,1502.1,1251.5,1477.1,1511
2026-06-21 23:17:59.596,1502.1,1252.3,1474.7,1511.8
2026-06-21 23:17:59.597,1502.1,1250.7,1476.3,1514.2
2026-06-21 23:17:59.598,1501.3,1253.9,1475.5,1513.4
2026-06-21 23:17:59.599,1501.3,1256.3,1477.1,1514.2
2026-06-21 23:17:59.600,1501.3,1252.3,1477.1,1514.2
2026-06-21 23:17:59.601,1504.5,1250.7,1475.5,1514.2
2026-06-21 23:17:59.602,1501.3,1251.5,1472.3,1514.2
2026-06-21 23:17:59.603,1501.3,1251.5,1471.5,1515
2026-06-21 23:17:59.604,1502.1,1253.9,1473.9,1514.2
2026-06-21 23:17:59.605,1507,1257.1,1473.9,1514.2
2026-06-21 23:17:59.606,1506.2,1251.5,1474.7,1514.2
2026-06-21 23:17:59.607,1504.5,1250.7,1474.7,1515
2026-06-21 23:17:59.608,1511,1251.5,1473.9,1514.2
2026-06-21 23:17:59.609,1504.5,1251.5,1474.7,1514.2
2026-06-21 23:17:59.610,1502.9,1249.9,1475.5,1514.2
2026-06-21 23:17:59.611,1502.9,1250.7,1473.1,1514.2
2026-06-21 23:17:59.612,1502.1,1252.3,1472.3,1514.2
2026-06-21 23:17:59.613,1504.5,1251.5,1476.3,1514.2
2026-06-21 23:17:59.614,1501.3,1251.5,1473.9,1511
2026-06-21 23:17:59.615,1502.9,1250.7,1474.7,1513.4
2026-06-21 23:17:59.616,1501.3,1252.3,1473.9,1515.8
2026-06-21 23:17:59.617,1501.3,1253.9,1474.7,1514.2
2026-06-21 23:17:59.618,1502.1,1253.9,1474.7,1514.2
2026-06-21 23:17:59.619,1502.1,1249.9,1475.5,1515
2026-06-21 23:17:59.620,1502.9,1249.9,1475.5,1513.4
2026-06-21 23:17:59.621,1501.3,1249.9,1475.5,1515
2026-06-21 23:17:59.630,1502.9,1250.7,1476.3,1515.8
2026-06-21 23:17:59.631,1499.7,1249.9,1474.7,1514.2
2026-06-21 23:17:59.632,1494.9,1250.7,1473.9,1515
2026-06-21 23:17:59.633,1498.1,1252.3,1477.1,1513.4
2026-06-21 23:17:59.634,1501.3,1254.7,1474.7,1515.8
2026-06-21 23:17:59.635,1501.3,1253.1,1475.5,1513.4
2026-06-21 23:17:59.636,1499.7,1251.5,1477.9,1514.2
2026-06-21 23:17:59.637,1498.1,1251.5,1475.5,1514.2
2026-06-21 23:17:59.638,1496.5,1250.7,1477.1,1513.4
2026-06-21 23:17:59.639,1498.9,1249.9,1476.3,1512.6
2026-06-21 23:17:59.640,1498.9,1251.5,1475.5,1514.2
2026-06-21 23:17:59.641,1500.5,1252.3,1477.1,1514.2
2026-06-21 23:17:59.642,1501.3,1253.9,1474.7,1514.2
2026-06-21 23:17:59.643,1499.7,1250.7,1476.3,1515.8
2026-06-21 23:17:59.644,1498.9,1252.3,1476.3,1514.2
2026-06-21 23:17:59.645,1501.3,1250.7,1477.1,1513.4
2026-06-21 23:17:59.646,1501.3,1252.3,1476.3,1514.2
2026-06-21 23:17:59.647,1501.3,1249.1,1474.7,1512.6
2026-06-21 23:17:59.648,1502.1,1253.9,1476.3,1511
2026-06-21 23:17:59.649,1502.1,1251.5,1476.3,1510.2
2026-06-21 23:17:59.650,1502.1,1251.5,1475.5,1511.8
2026-06-21 23:17:59.651,1504.5,1251.5,1477.9,1514.2
2026-06-21 23:17:59.652,1501.3,1251.5,1477.1,1511
2026-06-21 23:17:59.653,1501.3,1249.9,1476.3,1514.2
2026-06-21 23:17:59.654,1500.5,1251.5,1474.7,1514.2
2026-06-21 23:17:59.655,1501.3,1251.5,1476.3,1511.8
2026-06-21 23:17:59.656,1501.3,1253.9,1477.1,1513.4
2026-06-21 23:17:59.657,1501.3,1252.3,1474.7,1513.4
2026-06-21 23:17:59.658,1502.1,1251.5,1474.7,1514.2
2026-06-21 23:17:59.659,1502.1,1253.9,1477.1,1514.2
2026-06-21 23:17:59.660,1502.1,1250.7,1471.5,1512.6
2026-06-21 23:17:59.661,1501.3,1252.3,1473.1,1513.4
2026-06-21 23:17:59.662,1501.3,1249.9,1471.5,1514.2
2026-06-21 23:17:59.663,1501.3,1253.9,1473.1,1514.2
2026-06-21 23:17:59.664,1502.1,1251.5,1473.9,1514.2
2026-06-21 23:17:59.665,1502.9,1252.3,1475.5,1514.2
2026-06-21 23:17:59.666,1502.9,1251.5,1474.7,1511.8
2026-06-21 23:17:59.667,1504.5,1251.5,1476.3,1512.6
2026-06-21 23:17:59.668,1501.3,1252.3,1476.3,1513.4
2026-06-21 23:17:59.669,1501.3,1251.5,1473.9,1511.8
2026-06-21 23:17:59.670,1501.3,1251.5,1475.5,1512.6
2026-06-21 23:17:59.671,1502.1,1252.3,1475.5,1514.2
2026-06-21 23:17:59.672,1502.1,1251.5,1475.5,1513.4
2026-06-21 23:17:59.673,1501.3,1253.1,1476.3,1514.2
2026-06-21 23:17:59.674,1504.5,1251.5,1476.3,1514.2
2026-06-21 23:17:59.675,1502.1,1249.9,1476.3,1513.4
2026-06-21 23:17:59.676,1501.3,1251.5,1476.3,1514.2
2026-06-21 23:17:59.677,1500.5,1249.9,1473.9,1515.8
2026-06-21 23:17:59.678,1501.3,1249.9,1473.9,1514.2
2026-06-21 23:17:59.679,1501.3,1249.9,1477.1,1514.2
2026-06-21 23:17:59.673,1501.3,1249.1,1475.5,1514.2
2026-06-21 23:17:59.674,1501.3,1248.3,1475.5,1513.4
2026-06-21 23:17:59.675,1501.3,1250.7,1474.7,1514.2
2026-06-21 23:17:59.676,1500.5,1249.9,1477.1,1514.2
2026-06-21 23:17:59.677,1500.5,1251.5,1473.9,1515.8
2026-06-21 23:17:59.678,1499.7,1252.3,1477.1,1514.2
2026-06-21 23:17:59.679,1496.5,1248.3,1475.5,1514.2
2026-06-21 23:17:59.680,1496.5,1249.9,1475.5,1513.4
2026-06-21 23:17:59.681,1494.9,1252.3,1473.9,1514.2
2026-06-21 23:17:59.682,1498.1,1249.9,1475.5,1514.2
2026-06-21 23:17:59.683,1499.7,1250.7,1474.7,1515.8
2026-06-21 23:17:59.684,1498.9,1251.5,1474.7,1514.2
2026-06-21 23:17:59.685,1501.3,1250.7,1473.9,1515.8
2026-06-21 23:17:59.686,1501.3,1249.9,1476.3,1515.8
2026-06-21 23:17:59.687,1500.5,1249.1,1477.1,1514.2
2026-06-21 23:17:59.688,1501.3,1249.9,1474.7,1514.2
2026-06-21 23:17:59.689,1498.1,1250.7,1477.1,1514.2
2026-06-21 23:17:59.690,1501.3,1251.5,1475.5,1511
2026-06-21 23:17:59.691,1501.3,1252.3,1477.1,1511.8
2026-06-21 23:17:59.692,1501.3,1250.7,1476.3,1511
2026-06-21 23:17:59.693,1501.3,1248.3,1474.7,1512.6
2026-06-21 23:17:59.694,1502.1,1249.1,1476.3,1513.4
2026-06-21 23:17:59.695,1500.5,1251.5,1476.3,1511.8
2026-06-21 23:17:59.696,1498.9,1253.1,1476.3,1514.2
2026-06-21 23:17:59.697,1501.3,1250.7,1475.5,1512.6
2026-06-21 23:17:59.698,1502.9,1249.1,1477.9,1512.6
2026-06-21 23:17:59.699,1502.1,1251.5,1477.1,1511.8
2026-06-21 23:17:59.700,1501.3,1252.3,1476.3,1514.2
2026-06-21 23:17:59.701,1501.3,1253.9,1477.9,1514.2
2026-06-21 23:17:59.702,1502.9,1251.5,1474.7,1514.2
2026-06-21 23:17:59.703,1505.3,1250.7,1469.1,1511.8
2026-06-21 23:17:59.704,1500.5,1251.5,1472.3,1514.2
2026-06-21 23:17:59.705,1500.5,1251.5,1474.7,1513.4
2026-06-21 23:17:59.706,1501.3,1251.5,1473.9,1513.4
2026-06-21 23:17:59.707,1501.3,1248.3,1473.1,1514.2
2026-06-21 23:17:59.708,1501.3,1253.1,1473.9,1514.2
2026-06-21 23:17:59.709,1501.3,1251.5,1473.9,1514.2
2026-06-21 23:17:59.710,1502.1,1250.7,1473.9,1514.2
2026-06-21 23:17:59.711,1502.9,1251.5,1473.9,1514.2
2026-06-21 23:17:59.712,1501.3,1251.5,1473.1,1513.4
2026-06-21 23:17:59.713,1502.1,1249.9,1476.3,1514.2
2026-06-21 23:17:59.714,1501.3,1251.5,1476.3,1512.6
2026-06-21 23:17:59.715,1501.3,1253.1,1474.7,1514.2
2026-06-21 23:17:59.716,1501.3,1251.5,1473.9,1513.4
2026-06-21 23:17:59.717,1504.5,1251.5,1473.9,1511
2026-06-21 23:17:59.718,1501.3,1249.9,1475.5,1513.4
2026-06-21 23:17:59.719,1501.3,1249.9,1473.9,1514.2
2026-06-21 23:17:59.720,1501.3,1250.7,1477.1,1514.2
2026-06-21 23:17:59.721,1501.3,1248.3,1476.3,1513.4
2026-06-21 23:17:59.722,1502.1,1246.7,1473.9,1514.2
2026-06-21 23:17:59.730,1506.2,1246.7,1477.9,1514.2
2026-06-21 23:17:59.731,1503.7,1249.9,1476.3,1515.8
2026-06-21 23:17:59.732,1502.9,1248.3,1475.5,1514.2
2026-06-21 23:17:59.733,1505.3,1251.5,1474.7,1514.2
2026-06-21 23:17:59.734,1502.1,1251.5,1475.5,1514.2
2026-06-21 23:17:59.735,1501.3,1250.7,1475.5,1514.2
2026-06-21 23:17:59.736,1501.3,1250.7,1475.5,1514.2
2026-06-21 23:17:59.737,1501.3,1250.7,1476.3,1514.2
2026-06-21 23:17:59.738,1502.1,1251.5,1475.5,1514.2
2026-06-21 23:17:59.739,1502.1,1251.5,1476.3,1514.2
2026-06-21 23:17:59.740,1502.1,1250.7,1475.5,1514.2
2026-06-21 23:17:59.741,1502.1,1251.5,1473.9,1513.4
2026-06-21 23:17:59.742,1501.3,1253.1,1476.3,1512.6
2026-06-21 23:17:59.743,1502.1,1249.1,1475.5,1514.2
2026-06-21 23:17:59.744,1500.5,1253.9,1477.1,1513.4
2026-06-21 23:17:59.745,1501.3,1250.7,1476.3,1511
2026-06-21 23:17:59.746,1501.3,1250.7,1475.5,1511.8
2026-06-21 23:17:59.747,1502.9,1249.9,1474.7,1509.4
2026-06-21 23:17:59.748,1502.1,1253.9,1476.3,1507.8
2026-06-21 23:17:59.749,1505.3,1249.9,1477.9,1507
2026-06-21 23:17:59.750,1502.9,1253.1,1477.1,1508.6
2026-06-21 23:17:59.751,1502.1,1250.7,1475.5,1510.2
2026-06-21 23:17:59.752,1502.1,1249.9,1476.3,1502.9
2026-06-21 23:17:59.753,1502.1,1253.9,1477.9,1509.4
2026-06-21 23:17:59.754,1502.9,1252.3,1475.5,1509.4
2026-06-21 23:17:59.755,1502.9,1251.5,1477.1,1513.4
2026-06-21 23:17:59.756,1502.9,1252.3,1477.1,1512.6
2026-06-21 23:17:59.757,1501.3,1251.5,1473.1,1515
2026-06-21 23:17:59.758,1502.9,1250.7,1476.3,1515.8
2026-06-21 23:17:59.759,1501.3,1251.5,1476.3,1516.6
2026-06-21 23:17:59.760,1504.5,1251.5,1471.5,1516.6
2026-06-21 23:17:59.761,1502.1,1252.3,1469.1,1515
2026-06-21 23:17:59.762,1502.9,1253.9,1472.3,1514.2
2026-06-21 23:17:59.763,1504.5,1254.7,1473.1,1514.2
2026-06-21 23:17:59.764,1507.8,1251.5,1473.1,1512.6
2026-06-21 23:17:59.765,1502.1,1251.5,1471.5,1511.8
2026-06-21 23:17:59.766,1502.1,1251.5,1473.9,1512.6
2026-06-21 23:17:59.767,1505.3,1251.5,1473.1,1513.4
2026-06-21 23:17:59.768,1502.1,1251.5,1473.9,1514.2
2026-06-21 23:17:59.769,1501.3,1249.1,1475.5,1510.2
2026-06-21 23:17:59.770,1502.1,1248.3,1475.5,1513.4
2026-06-21 23:17:59.771,1501.3,1249.9,1476.3,1513.4
2026-06-21 23:17:59.772,1502.1,1252.3,1474.7,1510.2
2026-06-21 23:17:59.773,1502.9,1251.5,1474.7,1514.2
2026-06-21 23:17:59.774,1502.9,1253.1,1473.9,1513.4
2026-06-21 23:17:59.775,1501.3,1251.5,1474.7,1513.4
2026-06-21 23:17:59.776,1504.5,1248.3,1476.3,1514.2
2026-06-21 23:17:59.777,1507,1250.7,1474.7,1514.2
2026-06-21 23:17:59.778,1502.9,1247.5,1473.9,1514.2
2026-06-21 23:17:59.779,1508.6,1250.7,1474.7,1512.6
2026-06-21 23:17:59.774,1502.1,1249.9,1475.5,1514.2
2026-06-21 23:17:59.775,1498.9,1250.7,1476.3,1510.2
2026-06-21 23:17:59.776,1498.9,1249.9,1475.5,1507.8
2026-06-21 23:17:59.777,1498.9,1249.9,1475.5,1509.4
2026-06-21 23:17:59.778,1500.5,1251.5,1475.5,1510.2
2026-06-21 23:17:59.779,1501.3,1250.7,1473.9,1511
2026-06-21 23:17:59.780,1500.5,1251.5,1474.7,1514.2
2026-06-21 23:17:59.781,1501.3,1252.3,1476.3,1514.2
2026-06-21 23:17:59.782,1498.9,1252.3,1477.1,1514.2
2026-06-21 23:17:59.783,1498.9,1250.7,1475.5,1514.2
2026-06-21 23:17:59.784,1498.9,1252.3,1477.1,1514.2
2026-06-21 23:17:59.785,1498.9,1249.9,1477.1,1514.2
2026-06-21 23:17:59.786,1500.5,1249.9,1475.5,1514.2
2026-06-21 23:17:59.787,1502.9,1251.5,1476.3,1514.2
2026-06-21 23:17:59.788,1503.7,1251.5,1475.5,1514.2
2026-06-21 23:17:59.789,1505.3,1251.5,1476.3,1514.2
2026-06-21 23:17:59.790,1503.7,1249.9,1473.9,1514.2
2026-06-21 23:17:59.791,1502.9,1252.3,1477.1,1507.8
2026-06-21 23:17:59.792,1505.3,1252.3,1477.1,1511.8
2026-06-21 23:17:59.793,1502.1,1249.9,1474.7,1512.6
2026-06-21 23:17:59.794,1502.1,1251.5,1477.1,1512.6
2026-06-21 23:17:59.795,1504.5,1251.5,1477.1,1510.2
2026-06-21 23:17:59.796,1502.9,1251.5,1477.1,1511.8
2026-06-21 23:17:59.797,1503.7,1251.5,1474.7,1511
2026-06-21 23:17:59.798,1504.5,1251.5,1475.5,1511
2026-06-21 23:17:59.799,1503.7,1251.5,1476.3,1510.2
2026-06-21 23:17:59.800,1505.3,1252.3,1476.3,1509.4
2026-06-21 23:17:59.801,1502.1,1252.3,1478.8,1513.4
2026-06-21 23:17:59.802,1504.5,1251.5,1473.1,1511.8
2026-06-21 23:17:59.803,1502.9,1251.5,1475.5,1510.2
2026-06-21 23:17:59.804,1505.3,1249.9,1473.9,1513.4
2026-06-21 23:17:59.805,1504.5,1251.5,1473.9,1513.4
2026-06-21 23:17:59.806,1502.9,1253.9,1473.9,1511
2026-06-21 23:17:59.807,1504.5,1251.5,1473.9,1514.2
2026-06-21 23:17:59.808,1503.7,1256.3,1474.7,1511.8
2026-06-21 23:17:59.809,1505.3,1251.5,1473.9,1511.8
2026-06-21 23:17:59.810,1506.2,1251.5,1473.1,1511
2026-06-21 23:17:59.811,1504.5,1251.5,1473.9,1511.8
2026-06-21 23:17:59.812,1504.5,1252.3,1473.9,1513.4
2026-06-21 23:17:59.813,1507.8,1252.3,1474.7,1514.2
2026-06-21 23:17:59.814,1506.2,1251.5,1475.5,1511.8
2026-06-21 23:17:59.815,1507,1249.1,1473.9,1514.2
2026-06-21 23:17:59.816,1506.2,1252.3,1474.7,1514.2
2026-06-21 23:17:59.817,1504.5,1250.7,1473.1,1514.2
2026-06-21 23:17:59.818,1507.8,1250.7,1473.9,1515.8
2026-06-21 23:17:59.819,1507,1252.3,1476.3,1515.8
2026-06-21 23:17:59.820,1507.8,1251.5,1473.9,1516.6
2026-06-21 23:17:59.821,1507.8,1251.5,1474.7,1517.4
2026-06-21 23:17:59.822,1507,1252.3,1474.7,1515
2026-06-21 23:17:59.823,1506.2,1249.9,1473.9,1512.6
2026-06-21 23:17:59.830,1506.2,1251.5,1473.1,1511
2026-06-21 23:17:59.831,1506.2,1253.9,1475.5,1511
2026-06-21 23:17:59.832,1502.1,1246.7,1477.1,1513.4
2026-06-21 23:17:59.833,1502.9,1249.1,1475.5,1514.2
2026-06-21 23:17:59.834,1502.1,1248.3,1476.3,1514.2
2026-06-21 23:17:59.835,1506.2,1251.5,1476.3,1515.8
2026-06-21 23:17:59.836,1504.5,1249.9,1474.7,1516.6
2026-06-21 23:17:59.837,1504.5,1249.9,1475.5,1515.8
2026-06-21 23:17:59.838,1504.5,1251.5,1474.7,1516.6
2026-06-21 23:17:59.839,1506.2,1249.9,1474.7,1515
2026-06-21 23:17:59.840,1507,1251.5,1473.9,1515
2026-06-21 23:17:59.841,1505.3,1248.3,1475.5,1514.2
2026-06-21 23:17:59.842,1507,1249.1,1475.5,1511
2026-06-21 23:17:59.843,1503.7,1252.3,1475.5,1514.2
2026-06-21 23:17:59.844,1505.3,1254.7,1476.3,1514.2
2026-06-21 23:17:59.845,1507.8,1251.5,1476.3,1514.2
2026-06-21 23:17:59.846,1506.2,1251.5,1479.6,1514.2
2026-06-21 23:17:59.847,1506.2,1251.5,1477.1,1517.4
2026-06-21 23:17:59.848,1507,1249.9,1475.5,1511
2026-06-21 23:17:59.849,1507.8,1252.3,1475.5,1507
2026-06-21 23:17:59.850,1510.2,1250.7,1477.9,1502.9
2026-06-21 23:17:59.851,1504.5,1252.3,1476.3,1501.3
2026-06-21 23:17:59.852,1507,1252.3,1475.5,1499.7
2026-06-21 23:17:59.853,1506.2,1249.1,1474.7,1510.2
2026-06-21 23:17:59.854,1506.2,1250.7,1472.3,1512.6
2026-06-21 23:17:59.855,1505.3,1251.5,1476.3,1513.4
2026-06-21 23:17:59.856,1506.2,1251.5,1477.1,1515.8
2026-06-21 23:17:59.857,1507.8,1249.1,1475.5,1513.4
2026-06-21 23:17:59.858,1508.6,1251.5,1475.5,1514.2
2026-06-21 23:17:59.859,1511.8,1251.5,1475.5,1513.4
2026-06-21 23:17:59.860,1506.2,1251.5,1473.1,1512.6
2026-06-21 23:17:59.861,1507,1251.5,1471.5,1513.4
2026-06-21 23:17:59.862,1508.6,1254.7,1472.3,1515
2026-06-21 23:17:59.863,1505.3,1252.3,1473.1,1515
2026-06-21 23:17:59.864,1505.3,1251.5,1473.1,1514.2
2026-06-21 23:17:59.865,1507,1252.3,1473.9,1518.2
2026-06-21 23:17:59.866,1507.8,1250.7,1473.9,1517.4
2026-06-21 23:17:59.867,1505.3,1253.9,1475.5,1515
2026-06-21 23:17:59.868,1508.6,1252.3,1474.7,1515
2026-06-21 23:17:59.869,1507,1251.5,1474.7,1514.2
2026-06-21 23:17:59.870,1510.2,1252.3,1473.1,1514.2
2026-06-21 23:17:59.871,1506.2,1252.3,1476.3,1514.2
2026-06-21 23:17:59.872,1502.9,1253.1,1473.1,1514.2
2026-06-21 23:17:59.873,1507,1250.7,1472.3,1514.2
2026-06-21 23:17:59.874,1504.5,1253.1,1474.7,1513.4
2026-06-21 23:17:59.875,1504.5,1255.5,1474.7,1509.4
2026-06-21 23:17:59.876,1506.2,1252.3,1474.7,1510.2
2026-06-21 23:17:59.877,1508.6,1250.7,1477.1,1511
2026-06-21 23:17:59.878,1510.2,1245.9,1476.3,1511.8
2026-06-21 23:17:59.879,1512.6,1249.1,1473.1,1512.6
2026-06-21 23:17:59.896,1508.6,1246.7,1474.7,1512.6
2026-06-21 23:17:59.897,1505.3,1246.7,1474.7,1513.4
2026-06-21 23:17:59.898,1501.3,1251.5,1475.5,1512.6
2026-06-21 23:17:59.899,1502.1,1249.9,1475.5,1514.2
2026-06-21 23:17:59.900,1502.1,1249.1,1477.1,1514.2
2026-06-21 23:17:59.901,1502.1,1248.3,1477.9,1514.2
2026-06-21 23:17:59.902,1502.9,1248.3,1477.1,1514.2
2026-06-21 23:17:59.903,1502.1,1248.3,1475.5,1512.6
2026-06-21 23:17:59.904,1504.5,1250.7,1477.1,1511
2026-06-21 23:17:59.905,1504.5,1251.5,1475.5,1513.4
2026-06-21 23:17:59.906,1504.5,1250.7,1475.5,1515.8
2026-06-21 23:17:59.907,1505.3,1252.3,1475.5,1520.7
2026-06-21 23:17:59.908,1506.2,1251.5,1476.3,1515.8
2026-06-21 23:17:59.909,1502.9,1251.5,1476.3,1511
2026-06-21 23:17:59.910,1507.8,1248.3,1476.3,1514.2
2026-06-21 23:17:59.911,1506.2,1253.9,1476.3,1514.2
2026-06-21 23:17:59.912,1505.3,1252.3,1476.3,1514.2
2026-06-21 23:17:59.913,1505.3,1251.5,1476.3,
2026-06-21 23:17:59.914,1502.9,1252.3,1474.7,1515.8
2026-06-21 23:17:59.915,1505.3,1252.3,1473.9,1511.8
2026-06-21 23:17:59.916,1507,1251.5,1475.5,1502.9
2026-06-21 23:17:59.917,1510.2,1252.3,1476.3,1501.3
2026-06-21 23:17:59.918,1507.8,1252.3,1475.5,1499.7
2026-06-21 23:17:59.919,1507.8,1252.3,1473.1,1501.3
2026-06-21 23:17:59.920,1507.8,1255.5,1474.7,1502.9
2026-06-21 23:17:59.921,1507.8,1252.3,1473.1,1507
2026-06-21 23:17:59.922,1510.2,1252.3,1475.5,1507.8
2026-06-21 23:17:59.923,1506.2,1251.5,1476.3,1511
2026-06-21 23:17:59.924,1505.3,1252.3,1476.3,1512.6
2026-06-21 23:17:59.925,1507.8,1250.7,,1511.8
2026-06-21 23:17:59.926,1506.2,1251.5,1475.5,1511.8
2026-06-21 23:17:59.927,1502.9,1251.5,1475.5,1513.4
2026-06-21 23:17:59.928,1507,1251.5,1473.1,1517.4
2026-06-21 23:17:59.929,1506.2,1249.1,1471.5,1523.1
2026-06-21 23:17:59.930,1508.6,1250.7,1472.3,1517.4
2026-06-21 23:17:59.931,1508.6,1251.5,1473.9,1514.2
2026-06-21 23:17:59.932,1506.2,1253.9,1473.9,1514.2
2026-06-21 23:17:59.933,1507,1252.3,1473.9,1511.8
2026-06-21 23:17:59.934,1506.2,1249.1,1474.7,1511.8
2026-06-21 23:17:59.935,1503.7,1251.5,1472.3,1513.4
2026-06-21 23:17:59.936,1506.2,1252.3,1471.5,1511.8
2026-06-21 23:17:59.937,1506.2,1252.3,1474.7,1513.4
2026-06-21 23:17:59.938,1507.8,1249.9,1473.9,1513.4
2026-06-21 23:17:59.939,1502.9,1254.7,1474.7,1513.4
2026-06-21 23:17:59.940,1504.5,1252.3,1475.5,1514.2
2026-06-21 23:17:59.941,1506.2,1249.9,1474.7,1515
2026-06-21 23:17:59.942,1507.8,1251.5,1474.7,1514.2
2026-06-21 23:17:59.943,1506.2,1248.3,1475.5,1514.2
2026-06-21 23:17:59.944,1504.5,1250.7,1475.5,1511
2026-06-21 23:17:59.945,1503.7,1249.1,1476.3,1512.6
2026-06-21 23:17:59.934,,1249.1,1473.9,1511.8
2026-06-21 23:17:59.932,1504.5,1247.5,1476.3,1510.2
2026-06-21 23:17:59.933,1502.1,1249.9,1476.3,1511.8
2026-06-21 23:17:59.934,1501.3,1249.1,1475.5,1517.4
2026-06-21 23:17:59.935,1501.3,1249.9,1475.5,1519
2026-06-21 23:17:59.936,1501.3,1250.7,1475.5,1515.8
2026-06-21 23:17:59.937,1501.3,1253.9,1475.5,1514.2
2026-06-21 23:17:59.938,1501.3,1249.1,1475.5,1516.6
2026-06-21 23:17:59.939,1502.1,1254.7,1474.7,1514.2
2026-06-21 23:17:59.940,1501.3,1251.5,1475.5,1515
2026-06-21 23:17:59.941,1501.3,1251.5,1474.7,1513.4
2026-06-21 23:17:59.942,1502.1,1250.7,1474.7,1513.4
2026-06-21 23:17:59.943,1502.1,1252.3,1476.3,1515.8
2026-06-21 23:17:59.944,1502.1,1251.5,1474.7,1514.2
2026-06-21 23:17:59.945,1501.3,1249.1,1476.3,1514.2
2026-06-21 23:17:59.946,1501.3,1249.9,1476.3,1515
2026-06-21 23:17:59.947,1501.3,1251.5,1476.3,1518.2
2026-06-21 23:17:59.948,1501.3,1253.9,1477.9,1518.2
2026-06-21 23:17:59.949,1502.1,1252.3,1476.3,1515.8
2026-06-21 23:17:59.950,1502.1,1252.3,1476.3,1511.8
2026-06-21 23:17:59.951,1504.5,1254.7,1474.7,1507
2026-06-21 23:17:59.952,1502.9,1252.3,1473.9,1502.9
2026-06-21 23:17:59.953,1504.5,1247.5,1473.9,1502.1
2026-06-21 23:17:59.954,1503.7,1252.3,1474.7,1499.7
2026-06-21 23:17:59.955,1505.3,1253.9,1473.9,1502.9
2026-06-21 23:17:59.956,1501.3,1253.9,1475.5,1512.6
2026-06-21 23:17:59.957,1502.1,1250.7,1473.9,1514.2
2026-06-21 23:17:59.958,1501.3,1252.3,1475.5,1514.2
2026-06-21 23:17:59.959,1502.1,1253.9,1476.3,1514.2
2026-06-21 23:17:59.960,1502.1,1250.7,1476.3,1513.4
2026-06-21 23:17:59.961,1502.9,1249.1,1475.5,1513.4
2026-06-21 23:17:59.962,1504.5,1249.9,1473.1,1511.8
2026-06-21 23:17:59.963,1504.5,1252.3,1471.5,1514.2
2026-06-21 23:17:59.964,1502.9,1252.3,1471.5,1515
2026-06-21 23:17:59.965,1508.6,1251.5,1473.1,1513.4
2026-06-21 23:17:59.966,1504.5,1251.5,1473.9,1516.6
2026-06-21 23:17:59.967,1502.1,1255.5,1473.9,1515.8
2026-06-21 23:17:59.968,1502.1,1250.7,1473.9,1515
2026-06-21 23:17:59.969,1503.7,1252.3,1475.5,1513.4
2026-06-21 23:17:59.970,1504.5,1252.3,1472.3,1514.2
2026-06-21 23:17:59.971,1505.3,1252.3,1473.1,1514.2
2026-06-21 23:17:59.972,1502.1,1251.5,1475.5,1515
2026-06-21 23:17:59.973,1502.1,1251.5,1473.9,1514.2
2026-06-21 23:17:59.974,1503.7,1253.1,1471.5,1515
2026-06-21 23:17:59.975,1502.1,1253.9,1473.9,1514.2
2026-06-21 23:17:59.976,1502.1,1251.5,1472.3,1514.2
2026-06-21 23:17:59.977,1501.3,1246.7,1474.7,1514.2
2026-06-21 23:17:59.978,1502.1,1250.7,1473.1,1514.2
2026-06-21 23:17:59.979,1502.1,1247.5,1473.9,1511
2026-06-21 23:17:59.980,1503.7,1249.9,1473.9,1507.8
2026-06-21 23:17:59.981,1508.6,1248.3,1476.3,1510.2
2026-06-21 23:17:59.997,1506.2,1251.5,1473.9,1502.9
2026-06-21 23:17:59.998,1502.1,1251.5,1474.7,1513.4
2026-06-21 23:17:59.999,1499.7,1251.5,1475.5,1514.2
2026-06-21 23:18:00.000,1498.9,1251.5,1474.7,1514.2
2026-06-21 23:18:00.001,1501.3,1252.3,1477.1,1514.2
2026-06-21 23:18:00.002,1501.3,1250.7,1474.7,1514.2
2026-06-21 23:18:00.003,1502.1,1251.5,1474.7,1512.6
2026-06-21 23:18:00.004,1500.5,1251.5,1473.1,1511.8
2026-06-21 23:18:00.005,1502.1,1249.9,1475.5,1511.8
2026-06-21 23:18:00.006,1502.1,1248.3,1474.7,1512.6
2026-06-21 23:18:00.007,1505.3,1250.7,1477.1,1514.2
2026-06-21 23:18:00.008,1501.3,1251.5,1477.9,1517.4
2026-06-21 23:18:00.009,1502.9,1249.9,1477.1,1515.8
2026-06-21 23:18:00.010,1502.1,1250.7,1476.3,1514.2
2026-06-21 23:18:00.011,1504.5,1251.5,1475.5,1514.2
2026-06-21 23:18:00.012,1501.3,1249.1,1476.3,1514.2
2026-06-21 23:18:00.013,1501.3,1251.5,1473.9,1511
2026-06-21 23:18:00.014,1502.1,1249.1,1477.1,1502.1
2026-06-21 23:18:00.015,1502.9,1251.5,1475.5,1511.8
2026-06-21 23:18:00.016,1502.9,1251.5,1473.9,1518.2
2026-06-21 23:18:00.017,1502.9,1251.5,1475.5,1528.7
2026-06-21 23:18:00.018,1504.5,1250.7,1475.5,1524.7
2026-06-21 23:18:00.019,1503.7,1252.3,1476.3,1523.1
2026-06-21 23:18:00.020,1502.9,1250.7,1477.1,1518.2
2026-06-21 23:18:00.021,1502.1,1252.3,1474.7,1511.8
2026-06-21 23:18:00.022,1504.5,1252.3,1476.3,1507
2026-06-21 23:18:00.023,1505.3,1254.7,1475.5,1515
2026-06-21 23:18:00.024,1502.9,1248.3,1476.3,1513.4
2026-06-21 23:18:00.025,1502.1,1251.5,1476.3,1507
2026-06-21 23:18:00.026,1502.1,1252.3,1474.7,1513.4
2026-06-21 23:18:00.027,1503.7,1249.9,1477.9,1514.2
2026-06-21 23:18:00.028,1502.9,1252.3,1472.3,1517.4
2026-06-21 23:18:00.029,1505.3,1252.3,1473.1,1515.8
2026-06-21 23:18:00.030,1503.7,1253.1,1476.3,1512.6
2026-06-21 23:18:00.031,1505.3,1251.5,1473.1,1507.8
2026-06-21 23:18:00.032,1502.9,1252.3,1473.9,1502.9
2026-06-21 23:18:00.033,1502.1,1249.9,1473.9,1507.8
2026-06-21 23:18:00.034,1503.7,1251.5,1473.9,1511
2026-06-21 23:18:00.035,1506.2,1251.5,1472.3,1512.6
2026-06-21 23:18:00.036,1502.1,1251.5,1475.5,1511
2026-06-21 23:18:00.037,1507.8,1251.5,1473.9,1514.2
2026-06-21 23:18:00.038,1507,1251.5,1473.9,1514.2
2026-06-21 23:18:00.039,1505.3,1253.9,1476.3,1516.6
2026-06-21 23:18:00.040,1504.5,1251.5,1476.3,1520.7
2026-06-21 23:18:00.041,1503.7,1251.5,1475.5,1523.1
2026-06-21 23:18:00.042,1505.3,1251.5,1475.5,1524.7
2026-06-21 23:18:00.043,1508.6,1249.1,1475.5,1519
2026-06-21 23:18:00.044,1504.5,1245.9,1476.3,1515.8
2026-06-21 23:18:00.045,1502.9,1248.3,1473.9,1507.8
2026-06-21 23:18:00.046,1506.2,1248.3,1476.3,1502.9
2026-06-21 23:18:00.042,1501.3,1251.5,1473.9,1502.1
2026-06-21 23:18:00.043,1499.7,1251.5,1477.1,1507.8
2026-06-21 23:18:00.044,1501.3,1248.3,1475.5,1514.2
2026-06-21 23:18:00.045,1498.9,1249.1,1476.3,1513.4
2026-06-21 23:18:00.046,1502.1,1251.5,1477.1,1512.6
2026-06-21 23:18:00.047,1502.9,1250.7,1477.1,1515
2026-06-21 23:18:00.048,1502.1,1251.5,1476.3,1519.9
2026-06-21 23:18:00.049,1502.1,1253.1,1477.1,1520.7
2026-06-21 23:18:00.050,1502.9,1249.9,1476.3,1515.8
2026-06-21 23:18:00.051,1502.1,1253.1,1476.3,1514.2
2026-06-21 23:18:00.052,1505.3,1251.5,1476.3,1514.2
2026-06-21 23:18:00.053,1502.1,1249.9,1476.3,1514.2
2026-06-21 23:18:00.054,1504.5,1252.3,1475.5,1511.8
2026-06-21 23:18:00.055,1504.5,1251.5,1477.1,1510.2
2026-06-21 23:18:00.056,1503.7,1250.7,1473.9,1509.4
2026-06-21 23:18:00.057,1505.3,1249.1,1474.7,1510.2
2026-06-21 23:18:00.058,1504.5,1249.9,1473.9,1513.4
2026-06-21 23:18:00.059,1502.9,1254.7,1474.7,1502.9
2026-06-21 23:18:00.060,1507.8,1252.3,1479.6,1517.4
2026-06-21 23:18:00.061,1508.6,1249.1,1477.9,1520.7
2026-06-21 23:18:00.062,1505.3,1250.7,1477.1,1515.8
2026-06-21 23:18:00.063,1503.7,1251.5,1474.7,1515.8
2026-06-21 23:18:00.064,1504.5,1249.1,1476.3,1511
2026-06-21 23:18:00.065,1505.3,1251.5,1474.7,1512.6
2026-06-21 23:18:00.066,1506.2,1251.5,1476.3,1509.4
2026-06-21 23:18:00.067,1504.5,1250.7,1475.5,1512.6
2026-06-21 23:18:00.068,1505.3,1251.5,1476.3,1511
2026-06-21 23:18:00.069,1504.5,1251.5,1473.9,1509.4
2026-06-21 23:18:00.070,1503.7,1253.9,1474.7,1511
2026-06-21 23:18:00.071,1505.3,1250.7,1473.9,1513.4
2026-06-21 23:18:00.072,1504.5,1250.7,1473.9,1513.4
2026-06-21 23:18:00.073,1506.2,1251.5,1471.5,1515.8
2026-06-21 23:18:00.074,1504.5,1251.5,1471.5,1520.7
2026-06-21 23:18:00.075,1505.3,1250.7,1473.1,1516.6
2026-06-21 23:18:00.076,1506.2,1249.9,1475.5,1515
2026-06-21 23:18:00.077,1507.8,1251.5,1473.9,1514.2
2026-06-21 23:18:00.078,1506.2,1249.9,1473.9,1515
2026-06-21 23:18:00.079,1506.2,1251.5,1474.7,1517.4
2026-06-21 23:18:00.080,1504.5,1249.1,1473.9,1514.2
2026-06-21 23:18:00.081,1503.7,1249.9,1475.5,1514.2
2026-06-21 23:18:00.082,1504.5,1252.3,1473.9,1514.2
2026-06-21 23:18:00.083,1503.7,1251.5,1474.7,1514.2
2026-06-21 23:18:00.084,1507,1251.5,1472.3,1514.2
2026-06-21 23:18:00.085,1504.5,1249.9,1475.5,1513.4
2026-06-21 23:18:00.086,1504.5,1251.5,1473.9,1510.2
2026-06-21 23:18:00.087,1503.7,1247.5,1473.9,1502.9
2026-06-21 23:18:00.088,1502.1,1248.3,1475.5,1507.8
2026-06-21 23:18:00.089,1504.5,1250.7,1476.3,1509.4
2026-06-21 23:18:00.090,1502.9,1249.9,1476.3,1508.6
2026-06-21 23:18:00.091,1506.2,1249.9,1475.5,1514.2
2026-06-21 23:18:00.097,1500.5,1249.1,1477.1,1514.2
2026-06-21 23:18:00.098,1500.5,1251.5,1476.3,1521.5
2026-06-21 23:18:00.099,1497.3,1248.3,1476.3,1521.5
2026-06-21 23:18:00.100,1497.3,1247.5,1475.5,1521.5
2026-06-21 23:18:00.101,1499.7,1251.5,1473.9,1524.7
2026-06-21 23:18:00.102,1501.3,1248.3,1475.5,1521.5
2026-06-21 23:18:00.103,1500.5,1249.9,1476.3,1517.4
2026-06-21 23:18:00.104,1498.9,1251.5,1477.9,1515
2026-06-21 23:18:00.105,1500.5,1249.9,1473.1,1513.4
2026-06-21 23:18:00.106,1501.3,1249.1,1477.1,1507.8
2026-06-21 23:18:00.107,1501.3,1255.5,1475.5,1507
2026-06-21 23:18:00.108,1499.7,1251.5,1475.5,1497.3
2026-06-21 23:18:00.109,1501.3,1249.9,1477.1,1498.1
2026-06-21 23:18:00.110,1499.7,1251.5,1469.9,1502.1
2026-06-21 23:18:00.111,1500.5,1251.5,1474.7,1509.4
2026-06-21 23:18:00.112,1501.3,1252.3,1477.1,1514.2
2026-06-21 23:18:00.113,1502.1,1250.7,1475.5,1514.2
2026-06-21 23:18:00.114,1499.7,1252.3,1473.1,1512.6
2026-06-21 23:18:00.115,1501.3,1250.7,1473.9,1510.2
2026-06-21 23:18:00.116,1502.1,1253.9,1473.1,1511.8
2026-06-21 23:18:00.117,1502.1,1252.3,1475.5,1511.8
2026-06-21 23:18:00.118,1506.2,1249.1,1474.7,1511
2026-06-21 23:18:00.119,1502.9,1250.7,1474.7,1507
2026-06-21 23:18:00.120,1501.3,1251.5,1473.1,1509.4
2026-06-21 23:18:00.121,1501.3,1253.9,1473.1,1502.9
2026-06-21 23:18:00.122,1501.3,1252.3,1476.3,1511.8
2026-06-21 23:18:00.123,1502.1,1251.5,1474.7,1512.6
2026-06-21 23:18:00.124,1500.5,1251.5,1473.9,1511.8
2026-06-21 23:18:00.125,1502.1,1249.1,1475.5,1513.4
2026-06-21 23:18:00.126,1500.5,1252.3,1475.5,1514.2
2026-06-21 23:18:00.127,1501.3,1250.7,1471.5,1512.6
2026-06-21 23:18:00.128,1501.3,1249.9,1469.9,1515.8
2026-06-21 23:18:00.129,1502.1,1251.5,1473.1,1514.2
2026-06-21 23:18:00.130,1501.3,1251.5,1473.9,1515.8
2026-06-21 23:18:00.131,1501.3,1251.5,1472.3,1514.2
2026-06-21 23:18:00.132,1502.1,1253.9,1474.7,1514.2
2026-06-21 23:18:00.133,1502.1,1253.1,1469.9,1514.2
2026-06-21 23:18:00.134,1501.3,1251.5,1472.3,1512.6
2026-06-21 23:18:00.135,1502.9,1251.5,1473.9,1511.8
2026-06-21 23:18:00.136,1501.3,1250.7,1475.5,1510.2
2026-06-21 23:18:00.137,1502.1,1252.3,1474.7,1509.4
2026-06-21 23:18:00.138,1502.1,1249.9,1475.5,1512.6
2026-06-21 23:18:00.139,1501.3,1252.3,1473.9,1513.4
2026-06-21 23:18:00.140,1499.7,1251.5,1473.9,1513.4
2026-06-21 23:18:00.141,1502.1,1249.9,1474.7,1514.2
2026-06-21 23:18:00.142,1501.3,1251.5,1474.7,1515.8
2026-06-21 23:18:00.143,1501.3,1249.1,1476.3,1514.2
2026-06-21 23:18:00.144,1501.3,1249.9,1476.3,1511.8
2026-06-21 23:18:00.145,1502.9,1248.3,1473.9,1511
2026-06-21 23:18:00.146,1504.5,1250.7,1474.7,1512.6
2026-06-21 23:18:00.138,1501.3,1248.3,1473.9,1511
2026-06-21 23:18:00.139,1498.9,1252.3,1476.3,1511.8
2026-06-21 23:18:00.140,1501.3,1251.5,1476.3,1515.8
2026-06-21 23:18:00.141,1500.5,1250.7,1474.7,1519
2026-06-21 23:18:00.142,1501.3,1249.9,1476.3,1517.4
2026-06-21 23:18:00.143,1501.3,1251.5,1475.5,1515.8
2026-06-21 23:18:00.144,1502.9,1249.9,1476.3,1514.2
2026-06-21 23:18:00.145,1501.3,1250.7,1477.9,1513.4
2026-06-21 23:18:00.146,1501.3,1251.5,1475.5,1513.4
2026-06-21 23:18:00.147,1501.3,1250.7,1475.5,1511
2026-06-21 23:18:00.148,1501.3,1249.9,1475.5,1510.2
2026-06-21 23:18:00.149,1502.1,1251.5,1475.5,1513.4
2026-06-21 23:18:00.150,1502.9,1252.3,1474.7,1512.6
2026-06-21 23:18:00.151,1504.5,1249.9,1475.5,1514.2
2026-06-21 23:18:00.152,1501.3,1249.9,1476.3,1514.2
2026-06-21 23:18:00.153,1502.9,1253.9,1473.9,1517.4
2026-06-21 23:18:00.154,1505.3,1249.9,1476.3,1514.2
2026-06-21 23:18:00.155,1504.5,1249.1,1473.9,1513.4
2026-06-21 23:18:00.156,1505.3,1250.7,1476.3,1509.4
2026-06-21 23:18:00.157,1506.2,1252.3,1475.5,1512.6
2026-06-21 23:18:00.158,1507.8,1252.3,1477.1,1514.2
2026-06-21 23:18:00.159,1507,1250.7,1475.5,1513.4
2026-06-21 23:18:00.160,1510.2,1251.5,1475.5,1515
2026-06-21 23:18:00.161,1506.2,1249.9,1475.5,1515
2026-06-21 23:18:00.162,1510.2,1250.7,1473.9,1514.2
2026-06-21 23:18:00.163,1504.5,1248.3,1479.6,1515
2026-06-21 23:18:00.164,1507,1253.9,1475.5,1514.2
2026-06-21 23:18:00.165,1507.8,1249.9,1475.5,1511.8
2026-06-21 23:18:00.166,1507.8,1253.1,1475.5,1511.8
2026-06-21 23:18:00.167,1507.8,1251.5,1474.7,1513.4
2026-06-21 23:18:00.168,1508.6,1251.5,1469.1,1514.2
2026-06-21 23:18:00.169,1503.7,1253.9,1473.1,1511.8
2026-06-21 23:18:00.170,1505.3,1253.9,1473.9,1511.8
2026-06-21 23:18:00.171,1502.9,1249.1,1473.9,1511.8
2026-06-21 23:18:00.172,1507.8,1251.5,1472.3,1511.8
2026-06-21 23:18:00.173,1507,1249.1,1472.3,1512.6
2026-06-21 23:18:00.174,1504.5,1248.3,1473.9,1514.2
2026-06-21 23:18:00.175,1507,1249.9,1473.9,1513.4
2026-06-21 23:18:00.176,1506.2,1251.5,1473.9,1514.2
2026-06-21 23:18:00.177,1506.2,1252.3,1475.5,1512.6
2026-06-21 23:18:00.178,1506.2,1251.5,1473.9,1511.8
2026-06-21 23:18:00.179,1506.2,1252.3,1473.1,1511.8
2026-06-21 23:18:00.180,1505.3,1250.7,1473.9,1514.2
2026-06-21 23:18:00.181,1506.2,1251.5,1475.5,1515.8
2026-06-21 23:18:00.182,1505.3,1253.9,1473.9,1515.8
2026-06-21 23:18:00.183,1503.7,1253.9,1477.1,1515
2026-06-21 23:18:00.184,1502.1,1248.3,1473.1,1514.2
2026-06-21 23:18:00.185,1506.2,1251.5,1476.3,1509.4
2026-06-21 23:18:00.186,1505.3,1248.3,1477.1,1505.3
2026-06-21 23:18:00.187,1505.3,1252.3,1476.3,1510.2
2026-06-21 23:18:00.189,1506.2,1251.5,1474.7,1511.8
2026-06-21 23:18:00.190,1506.2,1251.5,1475.5,1513.4
2026-06-21 23:18:00.191,1501.3,1247.5,1473.1,1515.8
2026-06-21 23:18:00.192,1502.1,1249.9,1474.7,1513.4
2026-06-21 23:18:00.193,1501.3,1249.1,1476.3,1513.4
2026-06-21 23:18:00.194,1501.3,1251.5,1476.3,1514.2
2026-06-21 23:18:00.195,1502.1,1249.9,1475.5,1514.2
2026-06-21 23:18:00.196,1501.3,1252.3,1476.3,1514.2
2026-06-21 23:18:00.197,1501.3,1249.9,1473.9,1514.2
2026-06-21 23:18:00.198,1502.1,1249.9,1474.7,1514.2
2026-06-21 23:18:00.199,1501.3,1250.7,1474.7,1512.6
2026-06-21 23:18:00.200,1502.1,1249.1,1473.1,1514.2
2026-06-21 23:18:00.201,1504.5,1251.5,1476.3,1514.2
2026-06-21 23:18:00.202,1506.2,1251.5,1474.7,1514.2
2026-06-21 23:18:00.203,1502.9,1247.5,1474.7,1512.6
2026-06-21 23:18:00.204,1504.5,1251.5,1475.5,1511
2026-06-21 23:18:00.205,1502.9,1252.3,1475.5,1514.2
2026-06-21 23:18:00.206,1502.9,1253.9,1476.3,1512.6
2026-06-21 23:18:00.207,1505.3,1249.9,1473.9,1511.8
2026-06-21 23:18:00.208,1502.9,1251.5,1476.3,1511.8
2026-06-21 23:18:00.209,1507,1252.3,1477.9,1514.2
2026-06-21 23:18:00.210,1506.2,1252.3,1477.9,1513.4
2026-06-21 23:18:00.211,1506.2,1252.3,1476.3,1514.2
2026-06-21 23:18:00.212,1502.9,1251.5,1476.3,1515.8
2026-06-21 23:18:00.213,1502.9,1252.3,1477.1,1515
2026-06-21 23:18:00.214,1501.3,1251.5,1476.3,1514.2
2026-06-21 23:18:00.215,1503.7,1250.7,1477.9,1512.6
2026-06-21 23:18:00.216,1504.5,1251.5,1473.9,1513.4
2026-06-21 23:18:00.217,1502.9,1254.7,1472.3,1514.2
2026-06-21 23:18:00.218,1502.1,1251.5,1475.5,1513.4
2026-06-21 23:18:00.219,1502.1,1251.5,1472.3,1513.4
2026-06-21 23:18:00.220,1502.9,1250.7,1473.9,1510.2
2026-06-21 23:18:00.221,1502.1,1252.3,1473.9,1513.4
2026-06-21 23:18:00.222,1502.1,1251.5,1476.3,1513.4
2026-06-21 23:18:00.223,1502.1,1250.7,1475.5,1512.6
2026-06-21 23:18:00.224,1501.3,1250.7,1475.5,1515
2026-06-21 23:18:00.225,1502.9,1253.1,1475.5,1514.2
2026-06-21 23:18:00.226,1502.1,1249.1,1475.5,1512.6
2026-06-21 23:18:00.227,1502.1,1251.5,1472.3,1514.2
2026-06-21 23:18:00.228,1502.1,1251.5,1465.1,1514.2
2026-06-21 23:18:00.229,1502.9,1252.3,1466.7,1513.4
2026-06-21 23:18:00.230,1501.3,1252.3,1469.9,1514.2
2026-06-21 23:18:00.231,1501.3,1250.7,1469.1,1514.2
2026-06-21 23:18:00.232,1501.3,1250.7,1469.1,1514.2
2026-06-21 23:18:00.233,1499.7,1251.5,1474.7,1514.2
2026-06-21 23:18:00.234,1501.3,1249.9,1474.7,1514.2
2026-06-21 23:18:00.235,1501.3,1248.3,1473.9,1514.2
2026-06-21 23:18:00.236,1498.9,1247.5,1475.5,1515
2026-06-21 23:18:00.237,1502.1,1249.1,1477.1,1512.6
2026-06-21 23:18:00.238,1501.3,1249.9,1473.9,1514.2
2026-06-21 23:18:00.246,1501.3,1247.5,1474.7,1514.2
2026-06-21 23:18:00.247,1501.3,1249.9,1476.3,1514.2
2026-06-21 23:18:00.248,1496.5,1248.3,1473.1,1513.4
2026-06-21 23:18:00.249,1498.1,1250.7,1474.7,1514.2
2026-06-21 23:18:00.250,1498.9,1252.3,1473.9,1514.2
2026-06-21 23:18:00.251,1497.3,1249.1,1475.5,1512.6
2026-06-21 23:18:00.252,1494.9,1252.3,1477.9,1514.2
2026-06-21 23:18:00.253,1501.3,1250.7,1473.9,1514.2
2026-06-21 23:18:00.254,1498.9,1251.5,1473.1,1514.2
2026-06-21 23:18:00.255,1499.7,1255.5,1473.9,1514.2
2026-06-21 23:18:00.256,1499.7,1257.9,1476.3,1513.4
2026-06-21 23:18:00.257,1501.3,1257.1,1476.3,1513.4
2026-06-21 23:18:00.258,1498.1,1256.3,1474.7,1514.2
2026-06-21 23:18:00.259,1499.7,1253.9,1476.3,1514.2
