# participant=P001 | sex=male | age=22 | weight_kg=68 | height_cm=175
# exercise=stair_ascent | trial_no=2 | label=stair_ascent | session=2026-06-21T17:48:39.974Z | tz=Asia/Calcutta
datetime_local,muscle1_raw_mV,muscle2_raw_mV,muscle3_raw_mV,muscle4_raw_mV
2026-06-21 23:18:39.947,,1253.9,,
2026-06-21 23:18:39.948,,1252.3,,
2026-06-21 23:18:39.949,,1256.3,,
2026-06-21 23:18:39.950,,1255.5,,
2026-06-21 23:18:39.951,,1255.5,,
2026-06-21 23:18:39.952,,1252.3,,
2026-06-21 23:18:39.953,,1250.7,,
2026-06-21 23:18:39.954,,1254.7,,
2026-06-21 23:18:39.955,,1253.1,,
2026-06-21 23:18:39.956,,1250.7,,
2026-06-21 23:18:39.957,,1252.3,,
2026-06-21 23:18:39.958,,1251.5,,
2026-06-21 23:18:39.959,,1249.9,,
2026-06-21 23:18:39.960,,1249.9,,1512.6
2026-06-21 23:18:39.961,,1251.5,,1507
2026-06-21 23:18:39.962,,1245.9,,1507.8
2026-06-21 23:18:39.963,,1249.1,,1509.4
2026-06-21 23:18:39.964,,1247.5,,1509.4
2026-06-21 23:18:39.965,,1252.3,,1513.4
2026-06-21 23:18:39.966,,1251.5,,1513.4
2026-06-21 23:18:39.967,,1251.5,,1514.2
2026-06-21 23:18:39.968,,1248.3,,1510.2
2026-06-21 23:18:39.969,,1248.3,,1510.2
2026-06-21 23:18:39.970,,1249.9,,1512.6
2026-06-21 23:18:39.971,,1251.5,,1511
2026-06-21 23:18:39.972,,1250.7,,1513.4
2026-06-21 23:18:39.973,,1253.9,,1513.4
2026-06-21 23:18:39.974,,1253.1,,1513.4
2026-06-21 23:18:39.975,,1249.1,,1511.8
2026-06-21 23:18:39.976,,1251.5,,1513.4
2026-06-21 23:18:39.977,,1251.5,,1513.4
2026-06-21 23:18:39.978,,1251.5,1475.5,1511.8
2026-06-21 23:18:39.979,,1250.7,1465.1,1510.2
2026-06-21 23:18:39.980,,1253.1,1465.9,1512.6
2026-06-21 23:18:39.981,,1248.3,1465.9,1512.6
2026-06-21 23:18:39.982,,1250.7,1469.1,1511.8
2026-06-21 23:18:39.983,,1251.5,1477.9,1514.2
2026-06-21 23:18:39.984,,1252.3,1479.6,1514.2
2026-06-21 23:18:39.985,,1251.5,1476.3,1511
2026-06-21 23:18:39.986,,1251.5,1477.9,1513.4
2026-06-21 23:18:39.987,,1249.9,1476.3,1511.8
2026-06-21 23:18:39.988,,1249.9,1476.3,1513.4
2026-06-21 23:18:39.978,1509.4,1249.9,1477.1,1515
2026-06-21 23:18:39.979,1502.9,1249.9,1466.7,1514.2
2026-06-21 23:18:39.980,1501.3,1249.1,1474.7,1513.4
2026-06-21 23:18:39.981,1502.1,1248.3,1473.9,1514.2
2026-06-21 23:18:39.982,1501.3,1251.5,1472.3,1512.6
2026-06-21 23:18:39.983,1501.3,1248.3,1471.5,1511
2026-06-21 23:18:39.984,1502.1,1248.3,1473.1,1513.4
2026-06-21 23:18:39.985,1501.3,1249.9,1476.3,1514.2
2026-06-21 23:18:39.986,1502.1,1251.5,1473.9,1512.6
2026-06-21 23:18:39.987,1503.7,1249.1,1475.5,1514.2
2026-06-21 23:18:39.988,1502.1,1251.5,1469.9,1512.6
2026-06-21 23:18:39.989,1503.7,1243.4,1465.9,1511.8
2026-06-21 23:18:39.990,1502.1,1244.2,1466.7,1511
2026-06-21 23:18:39.991,1505.3,1244.2,1465.1,1513.4
2026-06-21 23:18:39.992,1505.3,1259.6,1465.1,1514.2
2026-06-21 23:18:39.993,1505.3,1260.4,1467.5,1511.8
2026-06-21 23:18:39.994,1505.3,1257.1,1473.9,1513.4
2026-06-21 23:18:39.995,1502.1,1251.5,1477.9,1514.2
2026-06-21 23:18:39.996,1502.9,1249.9,1479.6,1513.4
2026-06-21 23:18:39.997,1502.9,1249.1,1480.4,1514.2
2026-06-21 23:18:39.998,1503.7,1250.7,1481.2,1513.4
2026-06-21 23:18:39.999,1504.5,1249.9,1483.6,1514.2
2026-06-21 23:18:40.000,1502.9,1249.9,1477.9,1511
2026-06-21 23:18:40.001,1509.4,1250.7,1476.3,1509.4
2026-06-21 23:18:40.002,1505.3,1250.7,1475.5,1511
2026-06-21 23:18:40.003,1502.9,1251.5,1477.1,1513.4
2026-06-21 23:18:40.004,1505.3,1250.7,1476.3,1511.8
2026-06-21 23:18:40.005,1503.7,1248.3,1476.3,1511.8
2026-06-21 23:18:40.006,1503.7,1251.5,1476.3,1511.8
2026-06-21 23:18:40.007,1503.7,1251.5,1474.7,1510.2
2026-06-21 23:18:40.008,1504.5,1251.5,1474.7,1514.2
2026-06-21 23:18:40.009,1504.5,1251.5,1475.5,1512.6
2026-06-21 23:18:40.010,1506.2,1251.5,1474.7,1514.2
2026-06-21 23:18:40.011,1503.7,1249.9,1475.5,1511.8
2026-06-21 23:18:40.012,1505.3,1251.5,1472.3,1512.6
2026-06-21 23:18:40.013,1502.9,1250.7,1475.5,1513.4
2026-06-21 23:18:40.014,1506.2,1252.3,1472.3,1511.8
2026-06-21 23:18:40.015,1507,1253.9,1473.1,1509.4
2026-06-21 23:18:40.016,1503.7,1252.3,1473.9,1511
2026-06-21 23:18:40.017,1504.5,1251.5,1473.9,1511
2026-06-21 23:18:40.018,1506.2,1250.7,1465.1,1511.8
2026-06-21 23:18:40.019,1508.6,1248.3,1471.5,1512.6
2026-06-21 23:18:40.020,1505.3,1251.5,1471.5,1513.4
2026-06-21 23:18:40.021,1506.2,1251.5,1472.3,1511.8
2026-06-21 23:18:40.022,1506.2,1253.9,1473.1,1513.4
2026-06-21 23:18:40.023,1504.5,1253.9,1474.7,1514.2
2026-06-21 23:18:40.024,1506.2,1248.3,1473.1,1512.6
2026-06-21 23:18:40.025,1504.5,1251.5,1473.9,1513.4
2026-06-21 23:18:40.026,1506.2,1254.7,1472.3,1515.8
2026-06-21 23:18:40.027,1507.8,1255.5,1473.1,1512.6
2026-06-21 23:18:40.017,1502.9,1251.5,1471.5,1513.4
2026-06-21 23:18:40.018,1500.5,1249.9,1475.5,1514.2
2026-06-21 23:18:40.019,1498.9,1250.7,1473.9,1514.2
2026-06-21 23:18:40.020,1501.3,1249.9,1473.9,1514.2
2026-06-21 23:18:40.021,1502.1,1251.5,1473.9,1514.2
2026-06-21 23:18:40.022,1503.7,1251.5,1473.9,1514.2
2026-06-21 23:18:40.023,1501.3,1253.1,1473.9,1513.4
2026-06-21 23:18:40.024,1501.3,1251.5,1474.7,1513.4
2026-06-21 23:18:40.025,1505.3,1248.3,1473.1,1512.6
2026-06-21 23:18:40.026,1502.9,1244.2,1473.9,1514.2
2026-06-21 23:18:40.027,1502.9,1245.9,1473.1,1514.2
2026-06-21 23:18:40.028,1502.1,1249.1,1477.9,1513.4
2026-06-21 23:18:40.029,1507,1247.5,1477.9,1514.2
2026-06-21 23:18:40.030,1501.3,1248.3,1474.7,1514.2
2026-06-21 23:18:40.031,1502.1,1247.5,1473.9,1513.4
2026-06-21 23:18:40.032,1502.1,1248.3,1465.9,1514.2
2026-06-21 23:18:40.033,1502.1,1249.9,1462.6,1514.2
2026-06-21 23:18:40.034,1504.5,1254.7,1459.4,1514.2
2026-06-21 23:18:40.035,1502.1,1251.5,1461.8,1514.2
2026-06-21 23:18:40.036,1506.2,1251.5,1467.5,1514.2
2026-06-21 23:18:40.037,1507.8,1252.3,1469.9,1512.6
2026-06-21 23:18:40.038,1504.5,1249.9,1479.6,1514.2
2026-06-21 23:18:40.039,1503.7,1251.5,1480.4,1510.2
2026-06-21 23:18:40.040,1504.5,1250.7,1480.4,1507.8
2026-06-21 23:18:40.041,1502.1,1247.5,1477.1,1507
2026-06-21 23:18:40.042,1506.2,1247.5,1475.5,1507.8
2026-06-21 23:18:40.043,1502.9,1252.3,1473.9,1511
2026-06-21 23:18:40.044,1505.3,1250.7,1476.3,1511.8
2026-06-21 23:18:40.045,1504.5,1249.9,1477.9,1512.6
2026-06-21 23:18:40.046,1505.3,1246.7,1477.9,1511.8
2026-06-21 23:18:40.047,1502.1,1249.9,1479.6,1510.2
2026-06-21 23:18:40.048,1502.9,1249.1,1477.1,1511
2026-06-21 23:18:40.049,1502.1,1248.3,1476.3,1511
2026-06-21 23:18:40.050,1507,1251.5,1477.9,1511.8
2026-06-21 23:18:40.051,1506.2,1253.9,1477.9,1513.4
2026-06-21 23:18:40.052,1502.1,1250.7,1476.3,1514.2
2026-06-21 23:18:40.053,1504.5,1249.9,1473.1,1514.2
2026-06-21 23:18:40.054,1506.2,1249.9,1476.3,1511.8
2026-06-21 23:18:40.055,1502.9,1249.1,1475.5,1511.8
2026-06-21 23:18:40.056,1506.2,1247.5,1481.2,1511.8
2026-06-21 23:18:40.057,1507.8,1249.1,1480.4,1513.4
2026-06-21 23:18:40.058,1504.5,1249.9,1474.7,1517.4
2026-06-21 23:18:40.059,1506.2,1252.3,1465.1,1517.4
2026-06-21 23:18:40.060,1507,1247.5,1480.4,1514.2
2026-06-21 23:18:40.061,1504.5,1249.9,1477.9,1515
2026-06-21 23:18:40.062,1505.3,1249.1,1471.5,1514.2
2026-06-21 23:18:40.063,1506.2,1249.1,1461,1510.2
2026-06-21 23:18:40.064,1504.5,1251.5,1451.4,1510.2
2026-06-21 23:18:40.065,1502.9,1250.7,1448.1,1502.9
2026-06-21 23:18:40.066,1505.3,1249.9,1454.6,1502.9
2026-06-21 23:18:40.077,1501.3,1249.1,1462.6,1510.2
2026-06-21 23:18:40.078,1501.3,1249.9,1476.3,1511.8
2026-06-21 23:18:40.079,1499.7,1252.3,1475.5,1514.2
2026-06-21 23:18:40.080,1499.7,1249.9,1480.4,1511.8
2026-06-21 23:18:40.081,1501.3,1249.9,1483.6,1512.6
2026-06-21 23:18:40.082,1501.3,1250.7,1477.9,1513.4
2026-06-21 23:18:40.083,1502.1,1250.7,1474.7,1511.8
2026-06-21 23:18:40.084,1502.9,1250.7,1477.1,1513.4
2026-06-21 23:18:40.085,1502.9,1244.2,1477.1,1512.6
2026-06-21 23:18:40.086,1501.3,1247.5,1475.5,1514.2
2026-06-21 23:18:40.087,1501.3,1249.9,1475.5,1515.8
2026-06-21 23:18:40.088,1501.3,1248.3,1474.7,1514.2
2026-06-21 23:18:40.089,1502.9,1248.3,1474.7,1513.4
2026-06-21 23:18:40.090,1504.5,1249.1,1467.5,1513.4
2026-06-21 23:18:40.091,1505.3,1244.2,1469.1,1514.2
2026-06-21 23:18:40.092,1501.3,1250.7,1472.3,1511.8
2026-06-21 23:18:40.093,1502.9,1248.3,1473.9,1513.4
2026-06-21 23:18:40.094,1504.5,1248.3,1477.1,1511.8
2026-06-21 23:18:40.095,1501.3,1249.1,1479.6,1514.2
2026-06-21 23:18:40.096,1504.5,1249.1,1477.9,1514.2
2026-06-21 23:18:40.097,1502.9,1250.7,1480.4,1514.2
2026-06-21 23:18:40.098,1502.9,1249.9,1473.9,1511
2026-06-21 23:18:40.099,1506.2,1246.7,1465.1,1507.8
2026-06-21 23:18:40.100,1505.3,1247.5,1465.1,1509.4
2026-06-21 23:18:40.101,1502.9,1249.9,1469.1,1502.9
2026-06-21 23:18:40.102,1502.1,1249.9,1469.1,1502.9
2026-06-21 23:18:40.103,1502.9,1249.9,1464.2,1502.9
2026-06-21 23:18:40.104,1502.9,1253.9,1456.2,1508.6
2026-06-21 23:18:40.105,1501.3,1250.7,1457.8,1511.8
2026-06-21 23:18:40.106,1504.5,1250.7,1469.9,1511.8
2026-06-21 23:18:40.107,1505.3,1249.9,1485.2,1514.2
2026-06-21 23:18:40.108,1504.5,1249.1,1486,1512.6
2026-06-21 23:18:40.109,1501.3,1248.3,1487.6,1509.4
2026-06-21 23:18:40.110,1502.9,1248.3,1487.6,1511
2026-06-21 23:18:40.111,1502.1,1247.5,1487.6,1511
2026-06-21 23:18:40.112,1505.3,1248.3,1487.6,1513.4
2026-06-21 23:18:40.113,1504.5,1247.5,1477.9,1512.6
2026-06-21 23:18:40.114,1502.9,1252.3,1481.2,1511.8
2026-06-21 23:18:40.115,1503.7,1251.5,1483.6,1514.2
2026-06-21 23:18:40.116,1505.3,1249.9,1480.4,1512.6
2026-06-21 23:18:40.117,1502.9,1251.5,1479.6,1514.2
2026-06-21 23:18:40.118,1503.7,1248.3,1473.9,1512.6
2026-06-21 23:18:40.119,1505.3,1249.1,1471.5,1513.4
2026-06-21 23:18:40.120,1506.2,1248.3,1482,1514.2
2026-06-21 23:18:40.121,1502.9,1247.5,1487.6,1511.8
2026-06-21 23:18:40.122,1502.1,1249.9,1487.6,1514.2
2026-06-21 23:18:40.123,1503.7,1249.1,1487.6,1513.4
2026-06-21 23:18:40.124,1503.7,1250.7,1485.2,1514.2
2026-06-21 23:18:40.125,1503.7,1245.1,1469.1,1514.2
2026-06-21 23:18:40.126,1507.8,1248.3,1458.6,1511.8
2026-06-21 23:18:40.118,1502.1,1248.3,1459.4,1511
2026-06-21 23:18:40.119,1498.9,1250.7,1469.9,1507.8
2026-06-21 23:18:40.120,1501.3,1249.9,1473.1,1511
2026-06-21 23:18:40.121,1500.5,1249.9,1465.9,1511
2026-06-21 23:18:40.122,1499.7,1252.3,1479.6,1515.8
2026-06-21 23:18:40.123,1501.3,1249.9,1485.2,1514.2
2026-06-21 23:18:40.124,1501.3,1251.5,1487.6,1514.2
2026-06-21 23:18:40.125,1502.1,1251.5,1492.5,1514.2
2026-06-21 23:18:40.126,1502.1,1249.1,1487.6,1515
2026-06-21 23:18:40.127,1501.3,1244.2,1459.4,1510.2
2026-06-21 23:18:40.128,1503.7,1244.2,1457.8,1502.1
2026-06-21 23:18:40.129,1502.1,1245.9,1447.3,1501.3
2026-06-21 23:18:40.130,1501.3,1246.7,1453.8,1498.9
2026-06-21 23:18:40.131,1501.3,1244.2,1473.1,1511.8
2026-06-21 23:18:40.132,1502.1,1245.9,1481.2,1512.6
2026-06-21 23:18:40.133,1502.9,1245.9,1484.4,1514.2
2026-06-21 23:18:40.134,1501.3,1243.4,1483.6,1511.8
2026-06-21 23:18:40.135,1502.9,1245.9,1482.8,1512.6
2026-06-21 23:18:40.136,1502.1,1245.9,1477.9,1512.6
2026-06-21 23:18:40.137,1506.2,1249.1,1473.9,1514.2
2026-06-21 23:18:40.138,1502.1,1250.7,1475.5,1511.8
2026-06-21 23:18:40.139,1502.9,1249.1,1474.7,1510.2
2026-06-21 23:18:40.140,1502.9,1246.7,1475.5,1510.2
2026-06-21 23:18:40.141,1506.2,1249.1,1481.2,1502.9
2026-06-21 23:18:40.142,1503.7,1251.5,1477.9,1502.9
2026-06-21 23:18:40.143,1502.9,1245.9,1472.3,1507.8
2026-06-21 23:18:40.144,1504.5,1249.1,1469.1,1507.8
2026-06-21 23:18:40.145,1502.9,1248.3,1472.3,1509.4
2026-06-21 23:18:40.146,1504.5,1251.5,1468.3,1511.8
2026-06-21 23:18:40.147,1505.3,1248.3,1469.9,1507.8
2026-06-21 23:18:40.148,1502.9,1248.3,1473.9,1514.2
2026-06-21 23:18:40.149,1502.1,1247.5,1465.1,1513.4
2026-06-21 23:18:40.150,1507,1247.5,1466.7,1512.6
2026-06-21 23:18:40.151,1505.3,1250.7,1472.3,1511.8
2026-06-21 23:18:40.152,1503.7,1249.1,1471.5,1511.8
2026-06-21 23:18:40.153,1502.9,1249.9,1466.7,1513.4
2026-06-21 23:18:40.154,1505.3,1251.5,1471.5,1513.4
2026-06-21 23:18:40.155,1507.8,1248.3,1477.1,1514.2
2026-06-21 23:18:40.156,1504.5,1248.3,1487.6,1514.2
2026-06-21 23:18:40.157,1502.1,1249.1,1490,1511
2026-06-21 23:18:40.158,1502.9,1244.2,1491.6,1510.2
2026-06-21 23:18:40.159,1502.9,1246.7,1465.9,1509.4
2026-06-21 23:18:40.160,1502.9,1245.9,1467.5,1511
2026-06-21 23:18:40.161,1502.9,1250.7,1482,1515.8
2026-06-21 23:18:40.162,1504.5,1246.7,1478.8,1514.2
2026-06-21 23:18:40.163,1507,1244.2,1477.9,1514.2
2026-06-21 23:18:40.164,1502.1,1245.9,1476.3,1514.2
2026-06-21 23:18:40.165,1502.9,1247.5,1473.9,1514.2
2026-06-21 23:18:40.166,1502.1,1241,1473.9,1513.4
2026-06-21 23:18:40.167,1504.5,1249.9,1473.1,1511.8
2026-06-21 23:18:40.178,1502.1,1249.1,1473.9,1507.8
2026-06-21 23:18:40.179,1501.3,1246.7,1473.1,1511.8
2026-06-21 23:18:40.180,1501.3,1257.1,1473.1,1511
2026-06-21 23:18:40.181,1500.5,1252.3,1472.3,1511.8
2026-06-21 23:18:40.182,1498.9,1248.3,1473.9,1511.8
2026-06-21 23:18:40.183,1498.1,1246.7,1476.3,1512.6
2026-06-21 23:18:40.184,1501.3,1248.3,1476.3,1513.4
2026-06-21 23:18:40.185,1500.5,1249.9,1475.5,1513.4
2026-06-21 23:18:40.186,1501.3,1247.5,1477.1,1512.6
2026-06-21 23:18:40.187,1501.3,1243.4,1475.5,1514.2
2026-06-21 23:18:40.188,1502.1,1243.4,1476.3,1514.2
2026-06-21 23:18:40.189,1502.1,1244.2,1477.9,1514.2
2026-06-21 23:18:40.190,1502.1,1247.5,1475.5,1515
2026-06-21 23:18:40.191,1501.3,1243.4,1469.9,1515
2026-06-21 23:18:40.192,1501.3,1244.2,1473.9,1514.2
2026-06-21 23:18:40.193,1502.9,1244.2,1479.6,1514.2
2026-06-21 23:18:40.194,1504.5,1244.2,1473.9,1510.2
2026-06-21 23:18:40.195,1501.3,1243.4,1467.5,1511.8
2026-06-21 23:18:40.196,1502.9,1241,1466.7,1511.8
2026-06-21 23:18:40.197,1502.9,1241.8,1472.3,1512.6
2026-06-21 23:18:40.198,1501.3,1244.2,1473.9,1514.2
2026-06-21 23:18:40.199,1502.9,1241,1477.1,1502.9
2026-06-21 23:18:40.200,1506.2,1248.3,1473.9,1507.8
2026-06-21 23:18:40.201,1502.1,1252.3,1475.5,1511
2026-06-21 23:18:40.202,1502.9,1249.9,1474.7,1507.8
2026-06-21 23:18:40.203,1502.9,1243.4,1476.3,1511.8
2026-06-21 23:18:40.204,1501.3,1244.2,1475.5,1511
2026-06-21 23:18:40.205,1506.2,1248.3,1475.5,1511
2026-06-21 23:18:40.206,1502.1,1248.3,1472.3,1509.4
2026-06-21 23:18:40.207,1502.1,1246.7,1477.9,1512.6
2026-06-21 23:18:40.208,1502.9,1249.9,1476.3,1514.2
2026-06-21 23:18:40.209,1502.9,1248.3,1476.3,1511.8
2026-06-21 23:18:40.210,1502.9,1249.9,1473.1,1512.6
2026-06-21 23:18:40.211,1505.3,1247.5,1474.7,1511.8
2026-06-21 23:18:40.212,1502.1,1247.5,1474.7,1511.8
2026-06-21 23:18:40.213,1502.9,1248.3,1475.5,1512.6
2026-06-21 23:18:40.214,1502.1,1245.9,1473.1,1511.8
2026-06-21 23:18:40.215,1503.7,1247.5,1474.7,1512.6
2026-06-21 23:18:40.216,1502.1,1247.5,1473.9,1511.8
2026-06-21 23:18:40.217,1502.1,1246.7,1468.3,1513.4
2026-06-21 23:18:40.218,1501.3,1249.1,1469.1,1512.6
2026-06-21 23:18:40.219,1502.1,1247.5,1471.5,1513.4
2026-06-21 23:18:40.220,1504.5,1243.4,1473.9,1514.2
2026-06-21 23:18:40.221,1504.5,1246.7,1471.5,1513.4
2026-06-21 23:18:40.222,1504.5,1244.2,1473.9,1514.2
2026-06-21 23:18:40.223,1508.6,1244.2,1472.3,1513.4
2026-06-21 23:18:40.224,1504.5,1250.7,1473.1,1514.2
2026-06-21 23:18:40.225,1504.5,1256.3,1473.1,1514.2
2026-06-21 23:18:40.226,1502.1,1249.1,1473.1,1513.4
2026-06-21 23:18:40.227,1502.1,1248.3,1473.9,1513.4
2026-06-21 23:18:40.220,1511,1255.5,1471.5,1514.2
2026-06-21 23:18:40.221,1502.1,1256.3,1467.5,1512.6
2026-06-21 23:18:40.222,1500.5,1249.9,1474.7,1513.4
2026-06-21 23:18:40.223,1501.3,1250.7,1475.5,1514.2
2026-06-21 23:18:40.224,1501.3,1248.3,1475.5,1512.6
2026-06-21 23:18:40.225,1500.5,1249.9,1482.8,1512.6
2026-06-21 23:18:40.226,1501.3,1246.7,1481.2,1510.2
2026-06-21 23:18:40.227,1501.3,1248.3,1482.8,1514.2
2026-06-21 23:18:40.228,1500.5,1248.3,1477.9,1509.4
2026-06-21 23:18:40.229,1501.3,1245.9,1469.9,1511.8
2026-06-21 23:18:40.230,1501.3,1244.2,1472.3,1513.4
2026-06-21 23:18:40.231,1503.7,1241.8,1472.3,1513.4
2026-06-21 23:18:40.232,1501.3,1240.2,1473.9,1512.6
2026-06-21 23:18:40.233,1502.1,1241,1473.1,1513.4
2026-06-21 23:18:40.234,1501.3,1240.2,1477.1,1512.6
2026-06-21 23:18:40.235,1502.1,1255.5,1475.5,1511
2026-06-21 23:18:40.236,1501.3,1253.9,1475.5,1511.8
2026-06-21 23:18:40.237,1502.1,1248.3,1475.5,1512.6
2026-06-21 23:18:40.238,1502.1,1241.8,1474.7,1513.4
2026-06-21 23:18:40.239,1502.1,1240.2,1476.3,1511
2026-06-21 23:18:40.240,1502.1,1244.2,1475.5,1510.2
2026-06-21 23:18:40.241,1502.1,1243.4,1473.9,1511
2026-06-21 23:18:40.242,1502.1,1251.5,1473.1,1502.9
2026-06-21 23:18:40.243,1502.9,1249.1,1475.5,1510.2
2026-06-21 23:18:40.244,1504.5,1248.3,1473.9,1511
2026-06-21 23:18:40.245,1501.3,1249.9,1469.9,1514.2
2026-06-21 23:18:40.246,1502.9,1244.2,1475.5,1515
2026-06-21 23:18:40.247,1502.9,1248.3,1475.5,1514.2
2026-06-21 23:18:40.248,1503.7,1249.1,1477.1,1515.8
2026-06-21 23:18:40.249,1505.3,1246.7,1474.7,1514.2
2026-06-21 23:18:40.250,1504.5,1245.9,1474.7,1514.2
2026-06-21 23:18:40.251,1502.1,1248.3,1476.3,1514.2
2026-06-21 23:18:40.252,1504.5,1251.5,1475.5,1513.4
2026-06-21 23:18:40.253,1502.9,1250.7,1477.9,1508.6
2026-06-21 23:18:40.254,1502.1,1249.9,1473.1,1510.2
2026-06-21 23:18:40.255,1502.9,1244.2,1473.1,1502.9
2026-06-21 23:18:40.256,1502.9,1243.4,1475.5,1508.6
2026-06-21 23:18:40.257,1505.3,1241.8,1474.7,1510.2
2026-06-21 23:18:40.258,1502.1,1246.7,1477.1,1507.8
2026-06-21 23:18:40.259,1502.9,1255.5,1475.5,1511.8
2026-06-21 23:18:40.260,1503.7,1253.9,1476.3,1514.2
2026-06-21 23:18:40.261,1501.3,1243.4,1469.1,1514.2
2026-06-21 23:18:40.262,1502.1,1240.2,1470.7,1514.2
2026-06-21 23:18:40.263,1508.6,1261.2,1469.1,1515
2026-06-21 23:18:40.264,1506.2,1255.5,1469.9,1514.2
2026-06-21 23:18:40.265,1507.8,1253.9,1472.3,1514.2
2026-06-21 23:18:40.266,1507,1256.3,1474.7,1515
2026-06-21 23:18:40.267,1504.5,1249.9,1471.5,1514.2
2026-06-21 23:18:40.268,1505.3,1248.3,1473.9,1514.2
2026-06-21 23:18:40.269,1504.5,1241.8,1474.7,1514.2
2026-06-21 23:18:40.277,1502.9,1251.5,1475.5,1511
2026-06-21 23:18:40.278,1500.5,1244.2,1473.9,1511
2026-06-21 23:18:40.279,1501.3,1251.5,1473.9,1507.8
2026-06-21 23:18:40.280,1501.3,1253.9,1473.1,1510.2
2026-06-21 23:18:40.281,1501.3,1249.9,1476.3,1511.8
2026-06-21 23:18:40.282,1502.9,1245.9,1471.5,1511.8
2026-06-21 23:18:40.283,1502.1,1251.5,1472.3,1509.4
2026-06-21 23:18:40.284,1502.1,1259.6,1476.3,1511
2026-06-21 23:18:40.285,1501.3,1254.7,1475.5,1514.2
2026-06-21 23:18:40.286,1502.1,1250.7,1469.9,1512.6
2026-06-21 23:18:40.287,1502.1,1247.5,1473.9,1511.8
2026-06-21 23:18:40.288,1508.6,1250.7,1469.9,1511.8
2026-06-21 23:18:40.289,1504.5,1249.9,1474.7,1513.4
2026-06-21 23:18:40.290,1502.9,1247.5,1475.5,1511.8
2026-06-21 23:18:40.291,1507,1249.1,1475.5,1514.2
2026-06-21 23:18:40.292,1505.3,1253.1,1474.7,1515
2026-06-21 23:18:40.293,1505.3,1251.5,1472.3,1514.2
2026-06-21 23:18:40.294,1505.3,1251.5,1473.9,1514.2
2026-06-21 23:18:40.295,1505.3,1249.9,1473.1,1515.8
2026-06-21 23:18:40.296,1508.6,1249.9,1475.5,1515.8
2026-06-21 23:18:40.297,1505.3,1249.1,1475.5,1514.2
2026-06-21 23:18:40.298,1505.3,1245.9,1476.3,1514.2
2026-06-21 23:18:40.299,1507,1241.8,1477.9,1510.2
2026-06-21 23:18:40.300,1507.8,1250.7,1475.5,1499.7
2026-06-21 23:18:40.301,1509.4,1245.9,1467.5,1507
2026-06-21 23:18:40.302,1510.2,1244.2,1465.9,1509.4
2026-06-21 23:18:40.303,1510.2,1260.4,1467.5,1507.8
2026-06-21 23:18:40.304,1507.8,1251.5,1469.9,1507.8
2026-06-21 23:18:40.305,1510.2,1248.3,1473.1,1511
2026-06-21 23:18:40.306,1506.2,1242.6,1471.5,1511.8
2026-06-21 23:18:40.307,1506.2,1243.4,1473.9,1510.2
2026-06-21 23:18:40.308,1507.8,1241,1472.3,1511.8
2026-06-21 23:18:40.309,1507.8,1241.8,1471.5,1511
2026-06-21 23:18:40.310,1506.2,1245.9,1475.5,1511.8
2026-06-21 23:18:40.311,1511.8,1265.2,1475.5,1512.6
2026-06-21 23:18:40.312,1511,1279.7,1476.3,1512.6
2026-06-21 23:18:40.313,1510.2,1270.8,1475.5,1508.6
2026-06-21 23:18:40.314,1511,1259.6,1473.1,1502.9
2026-06-21 23:18:40.315,1511.8,1260.4,1473.9,1501.3
2026-06-21 23:18:40.316,1509.4,1262,1471.5,1502.9
2026-06-21 23:18:40.317,1511,1256.3,1470.7,1502.9
2026-06-21 23:18:40.318,1511,1256.3,1465.9,1510.2
2026-06-21 23:18:40.319,1511,1255.5,1469.1,1514.2
2026-06-21 23:18:40.320,1510.2,1251.5,1469.9,1514.2
2026-06-21 23:18:40.321,1510.2,1259.6,1476.3,1516.6
2026-06-21 23:18:40.322,1510.2,1254.7,1474.7,1515.8
2026-06-21 23:18:40.323,1510.2,1257.1,1473.9,1516.6
2026-06-21 23:18:40.324,1513.4,1257.9,1474.7,1518.2
2026-06-21 23:18:40.325,1511.8,1261.2,1474.7,1517.4
2026-06-21 23:18:40.326,1511.8,1255.5,1473.1,1514.2
2026-06-21 23:18:40.316,1510.2,1256.3,1473.9,1514.2
2026-06-21 23:18:40.317,1505.3,1255.5,1475.5,1514.2
2026-06-21 23:18:40.318,1505.3,1255.5,1472.3,1513.4
2026-06-21 23:18:40.319,1507.8,1255.5,1474.7,1510.2
2026-06-21 23:18:40.320,1506.2,1254.7,1471.5,1511
2026-06-21 23:18:40.321,1506.2,1251.5,1473.1,1514.2
2026-06-21 23:18:40.322,1507,1255.5,1473.1,1515
2026-06-21 23:18:40.323,1510.2,1255.5,1471.5,1512.6
2026-06-21 23:18:40.324,1507.8,1250.7,1473.9,1514.2
2026-06-21 23:18:40.325,1510.2,1254.7,1469.9,1507.8
2026-06-21 23:18:40.326,1508.6,1252.3,1473.9,1511
2026-06-21 23:18:40.327,1511,1254.7,1473.9,1507
2026-06-21 23:18:40.328,1508.6,1252.3,1473.9,1507
2026-06-21 23:18:40.329,1510.2,1253.9,1475.5,1513.4
2026-06-21 23:18:40.330,1510.2,1252.3,1473.9,1512.6
2026-06-21 23:18:40.331,1511,1252.3,1476.3,1514.2
2026-06-21 23:18:40.332,1511.8,1251.5,1474.7,1512.6
2026-06-21 23:18:40.333,1510.2,1255.5,1477.1,1513.4
2026-06-21 23:18:40.334,1511,1252.3,1473.9,1513.4
2026-06-21 23:18:40.335,1510.2,1253.1,1469.1,1513.4
2026-06-21 23:18:40.336,1511.8,1254.7,1469.1,1511.8
2026-06-21 23:18:40.337,1510.2,1256.3,1473.1,1513.4
2026-06-21 23:18:40.338,1511,1256.3,1475.5,1513.4
2026-06-21 23:18:40.339,1511.8,1255.5,1475.5,1513.4
2026-06-21 23:18:40.340,1510.2,1257.9,1475.5,1514.2
2026-06-21 23:18:40.341,1510.2,1255.5,1473.9,1513.4
2026-06-21 23:18:40.342,1511.8,1255.5,1469.9,1511
2026-06-21 23:18:40.343,1510.2,1251.5,1473.9,1512.6
2026-06-21 23:18:40.344,1508.6,1249.1,1475.5,1513.4
2026-06-21 23:18:40.345,1511.8,1254.7,1473.1,1511.8
2026-06-21 23:18:40.346,1511,1253.9,1475.5,1511.8
2026-06-21 23:18:40.347,1511,1254.7,1474.7,1511
2026-06-21 23:18:40.348,1511,1251.5,1469.1,1511.8
2026-06-21 23:18:40.349,1511,1254.7,1472.3,1512.6
2026-06-21 23:18:40.350,1510.2,1251.5,1474.7,1512.6
2026-06-21 23:18:40.351,1511.8,1253.9,1473.9,1511.8
2026-06-21 23:18:40.352,1511,1253.9,1475.5,1511
2026-06-21 23:18:40.353,1510.2,1253.9,1475.5,1511.8
2026-06-21 23:18:40.354,1509.4,1251.5,1475.5,1510.2
2026-06-21 23:18:40.355,1511,1256.3,1475.5,1511
2026-06-21 23:18:40.356,1510.2,1252.3,1467.5,1514.2
2026-06-21 23:18:40.357,1508.6,1255.5,1471.5,1499.7
2026-06-21 23:18:40.358,1507,1256.3,1469.9,1511
2026-06-21 23:18:40.359,1510.2,1254.7,1469.9,1515
2026-06-21 23:18:40.360,1507.8,1250.7,1469.9,1515.8
2026-06-21 23:18:40.361,1508.6,1251.5,1469.1,1515.8
2026-06-21 23:18:40.362,1510.2,1253.9,1473.1,1514.2
2026-06-21 23:18:40.363,1511,1255.5,1473.1,1514.2
2026-06-21 23:18:40.364,1511.8,1256.3,1474.7,1514.2
2026-06-21 23:18:40.365,1512.6,1251.5,1469.1,1514.2
2026-06-21 23:18:40.377,1508.6,1252.3,1469.9,1513.4
2026-06-21 23:18:40.378,1507,1250.7,1473.9,1515
2026-06-21 23:18:40.379,1502.1,1252.3,1473.1,1514.2
2026-06-21 23:18:40.380,1506.2,1252.3,1475.5,1512.6
2026-06-21 23:18:40.381,1504.5,1252.3,1474.7,1502.9
2026-06-21 23:18:40.382,1506.2,1252.3,1475.5,1507
2026-06-21 23:18:40.383,1504.5,1254.7,1473.9,1511.8
2026-06-21 23:18:40.384,1507,1254.7,1473.9,1511.8
2026-06-21 23:18:40.385,1510.2,1251.5,1473.9,1511.8
2026-06-21 23:18:40.386,1506.2,1249.9,1473.9,1512.6
2026-06-21 23:18:40.387,1508.6,1249.9,1473.9,1511
2026-06-21 23:18:40.388,1507.8,1249.1,1473.9,1513.4
2026-06-21 23:18:40.389,1507,1249.9,1469.1,1514.2
2026-06-21 23:18:40.390,1510.2,1248.3,1472.3,1517.4
2026-06-21 23:18:40.391,1511.8,1251.5,1473.9,1519.9
2026-06-21 23:18:40.392,1506.2,1249.9,1474.7,1521.5
2026-06-21 23:18:40.393,1510.2,1249.1,1473.9,1519.9
2026-06-21 23:18:40.394,1510.2,1249.1,1475.5,1521.5
2026-06-21 23:18:40.395,1510.2,1250.7,1475.5,1520.7
2026-06-21 23:18:40.396,1510.2,1249.9,1473.9,1519.9
2026-06-21 23:18:40.397,1510.2,1248.3,1475.5,1514.2
2026-06-21 23:18:40.398,1510.2,1248.3,1473.9,1510.2
2026-06-21 23:18:40.399,1511,1251.5,1469.1,1497.3
2026-06-21 23:18:40.400,1510.2,1249.9,1475.5,1495.7
2026-06-21 23:18:40.401,1511.8,1250.7,1475.5,1498.9
2026-06-21 23:18:40.402,1512.6,1249.9,1475.5,1510.2
2026-06-21 23:18:40.403,1511.8,1249.1,1473.1,1513.4
2026-06-21 23:18:40.404,1511.8,1248.3,1477.1,1512.6
2026-06-21 23:18:40.405,1511.8,1248.3,1475.5,1514.2
2026-06-21 23:18:40.406,1511.8,1249.1,1475.5,1513.4
2026-06-21 23:18:40.407,1511.8,1250.7,1476.3,1511
2026-06-21 23:18:40.408,1511.8,1251.5,1473.9,1510.2
2026-06-21 23:18:40.409,1511.8,1249.1,1473.1,1507
2026-06-21 23:18:40.410,1511.8,1251.5,1471.5,1502.9
2026-06-21 23:18:40.411,1513.4,1249.9,1473.9,1507
2026-06-21 23:18:40.412,1512.6,1248.3,1473.9,1514.2
2026-06-21 23:18:40.413,1512.6,1249.9,1473.9,1517.4
2026-06-21 23:18:40.414,1513.4,1249.9,1474.7,1519
2026-06-21 23:18:40.415,1513.4,1244.2,1474.7,1515.8
2026-06-21 23:18:40.416,1514.2,1249.1,1474.7,1515.8
2026-06-21 23:18:40.417,1515,1248.3,1469.1,1507
2026-06-21 23:18:40.418,1518.2,1249.9,1469.9,1502.9
2026-06-21 23:18:40.419,1519,1249.9,1472.3,1501.3
2026-06-21 23:18:40.420,1516.6,1248.3,1471.5,1511
2026-06-21 23:18:40.421,1516.6,1249.1,1473.1,1511
2026-06-21 23:18:40.422,1520.7,1249.1,1473.9,1507.8
2026-06-21 23:18:40.423,1516.6,1248.3,1475.5,1511
2026-06-21 23:18:40.424,1518.2,1249.9,1473.9,1512.6
2026-06-21 23:18:40.425,1515.8,1248.3,1473.9,1514.2
2026-06-21 23:18:40.426,1518.2,1249.9,1472.3,1512.6
2026-06-21 23:18:40.417,1515,1249.1,1473.9,1511
2026-06-21 23:18:40.418,1513.4,1249.9,1475.5,1511.8
2026-06-21 23:18:40.419,1511.8,1252.3,1474.7,1514.2
2026-06-21 23:18:40.420,1511,1249.1,1473.1,1514.2
2026-06-21 23:18:40.421,1508.6,1244.2,1473.1,1516.6
2026-06-21 23:18:40.422,1511.8,1247.5,1473.9,1514.2
2026-06-21 23:18:40.423,1511.8,1248.3,1474.7,1514.2
2026-06-21 23:18:40.424,1509.4,1248.3,1474.7,1514.2
2026-06-21 23:18:40.425,1508.6,1248.3,1473.1,1517.4
2026-06-21 23:18:40.426,1512.6,1245.9,1476.3,1515.8
2026-06-21 23:18:40.427,1508.6,1247.5,1475.5,1514.2
2026-06-21 23:18:40.428,1510.2,1248.3,1475.5,1512.6
2026-06-21 23:18:40.429,1508.6,1248.3,1473.9,1507.8
2026-06-21 23:18:40.430,1507,1244.2,1473.9,1509.4
2026-06-21 23:18:40.431,1507.8,1248.3,1475.5,1502.9
2026-06-21 23:18:40.432,1508.6,1246.7,1476.3,1507.8
2026-06-21 23:18:40.433,1507.8,1249.1,1476.3,1511.8
2026-06-21 23:18:40.434,1507.8,1249.1,1473.1,1514.2
2026-06-21 23:18:40.435,1507.8,1251.5,1476.3,1515
2026-06-21 23:18:40.436,1510.2,1248.3,1477.1,1519
2026-06-21 23:18:40.437,1505.3,1248.3,1476.3,1516.6
2026-06-21 23:18:40.438,1507.8,1245.9,1476.3,1511.8
2026-06-21 23:18:40.439,1502.9,1251.5,1477.9,1496.5
2026-06-21 23:18:40.440,1502.1,1246.7,1477.1,1496.5
2026-06-21 23:18:40.441,1505.3,1251.5,1476.3,1497.3
2026-06-21 23:18:40.442,1503.7,1248.3,1475.5,1497.3
2026-06-21 23:18:40.443,1502.1,1251.5,1476.3,1499.7
2026-06-21 23:18:40.444,1502.1,1252.3,1477.9,1502.9
2026-06-21 23:18:40.445,1502.9,1249.9,1475.5,1502.9
2026-06-21 23:18:40.446,1502.9,1250.7,1475.5,1507
2026-06-21 23:18:40.447,1502.1,1251.5,1477.9,1512.6
2026-06-21 23:18:40.448,1501.3,1249.9,1475.5,1507.8
2026-06-21 23:18:40.449,1501.3,1250.7,1477.9,1511.8
2026-06-21 23:18:40.450,1501.3,1247.5,1477.9,1507.8
2026-06-21 23:18:40.451,1501.3,1252.3,1476.3,1507
2026-06-21 23:18:40.452,1501.3,1251.5,1476.3,1507.8
2026-06-21 23:18:40.453,1501.3,1249.1,1476.3,1513.4
2026-06-21 23:18:40.454,1500.5,1249.9,1475.5,1511.8
2026-06-21 23:18:40.455,1499.7,1249.1,1476.3,1511
2026-06-21 23:18:40.456,1498.9,1249.9,1473.9,1513.4
2026-06-21 23:18:40.457,1500.5,1249.9,1469.1,1513.4
2026-06-21 23:18:40.458,1498.9,1249.1,1472.3,1514.2
2026-06-21 23:18:40.459,1497.3,1253.9,1477.1,1517.4
2026-06-21 23:18:40.460,1501.3,1252.3,1476.3,1515
2026-06-21 23:18:40.461,1497.3,1250.7,1476.3,1514.2
2026-06-21 23:18:40.462,1498.9,1251.5,1477.1,1511.8
2026-06-21 23:18:40.463,1498.9,1251.5,1475.5,1513.4
2026-06-21 23:18:40.464,1499.7,1249.9,1477.1,1507
2026-06-21 23:18:40.465,1498.9,1249.1,1476.3,1497.3
2026-06-21 23:18:40.466,1499.7,1249.9,1475.5,1498.9
2026-06-21 23:18:40.479,1496.5,1249.9,1476.3,1499.7
2026-06-21 23:18:40.480,1498.9,1250.7,1475.5,1514.2
2026-06-21 23:18:40.481,1494.1,1252.3,1477.9,1507.8
2026-06-21 23:18:40.482,1494.9,1251.5,1474.7,1502.9
2026-06-21 23:18:40.483,1494.9,1250.7,1475.5,1509.4
2026-06-21 23:18:40.484,1498.1,1246.7,1475.5,1513.4
2026-06-21 23:18:40.485,1500.5,1250.7,1475.5,1514.2
2026-06-21 23:18:40.486,1500.5,1249.9,1473.1,1515
2026-06-21 23:18:40.487,1500.5,1249.9,1474.7,1513.4
2026-06-21 23:18:40.488,1500.5,1245.1,1476.3,1511
2026-06-21 23:18:40.489,1502.1,1244.2,1475.5,1511.8
2026-06-21 23:18:40.490,1504.5,1248.3,1475.5,1507.8
2026-06-21 23:18:40.491,1502.1,1247.5,1473.9,1511.8
2026-06-21 23:18:40.492,1502.1,1245.1,1473.9,1511
2026-06-21 23:18:40.493,1502.1,1246.7,1473.9,1511.8
2026-06-21 23:18:40.494,1502.9,1247.5,1475.5,1511.8
2026-06-21 23:18:40.495,1506.2,1247.5,1473.9,1511.8
2026-06-21 23:18:40.496,1506.2,1249.9,1475.5,1510.2
2026-06-21 23:18:40.497,1502.1,1246.7,1473.9,1510.2
2026-06-21 23:18:40.498,1506.2,1247.5,1473.9,1512.6
2026-06-21 23:18:40.499,1506.2,1248.3,1476.3,1512.6
2026-06-21 23:18:40.500,1503.7,1247.5,1474.7,1515.8
2026-06-21 23:18:40.501,1503.7,1249.9,1476.3,1515
2026-06-21 23:18:40.502,1504.5,1249.9,1476.3,1513.4
2026-06-21 23:18:40.503,1504.5,1247.5,1476.3,1514.2
2026-06-21 23:18:40.504,1505.3,1244.2,1473.9,1511.8
2026-06-21 23:18:40.505,1507.8,1249.9,1475.5,1514.2
2026-06-21 23:18:40.506,1506.2,1248.3,1474.7,1514.2
2026-06-21 23:18:40.507,1507.8,1249.1,1475.5,1515
2026-06-21 23:18:40.508,1507.8,1251.5,1474.7,1512.6
2026-06-21 23:18:40.509,1504.5,1252.3,1476.3,1512.6
2026-06-21 23:18:40.510,1507.8,1249.9,1473.1,1509.4
2026-06-21 23:18:40.511,1506.2,1249.9,1473.9,1502.1
2026-06-21 23:18:40.512,1502.9,1249.9,1473.9,1502.9
2026-06-21 23:18:40.513,1502.1,1249.9,1475.5,1501.3
2026-06-21 23:18:40.514,1503.7,1248.3,1473.9,1501.3
2026-06-21 23:18:40.515,1506.2,1249.9,1473.9,1502.9
2026-06-21 23:18:40.516,1506.2,1249.1,1476.3,1507
2026-06-21 23:18:40.517,1507.8,1247.5,1475.5,1511
2026-06-21 23:18:40.518,1502.1,1250.7,1474.7,1511.8
2026-06-21 23:18:40.519,1506.2,1248.3,1474.7,1514.2
2026-06-21 23:18:40.520,1506.2,1244.2,1469.9,1516.6
2026-06-21 23:18:40.521,1502.9,1247.5,1469.1,1521.5
2026-06-21 23:18:40.522,1504.5,1244.2,1473.9,1507
2026-06-21 23:18:40.523,1505.3,1244.2,1472.3,1502.9
2026-06-21 23:18:40.524,1503.7,1248.3,1471.5,1502.9
2026-06-21 23:18:40.525,1507.8,1248.3,1473.1,1511.8
2026-06-21 23:18:40.526,1506.2,1255.5,1473.1,1511.8
2026-06-21 23:18:40.527,1507.8,1261.2,1473.1,1511.8
2026-06-21 23:18:40.528,1506.2,1254.7,1473.1,1515.8
2026-06-21 23:18:40.517,1502.9,1249.9,1475.5,1515
2026-06-21 23:18:40.518,1500.5,1247.5,1474.7,1507.8
2026-06-21 23:18:40.519,1501.3,1248.3,1475.5,1511
2026-06-21 23:18:40.520,1501.3,1249.9,1477.9,1511.8
2026-06-21 23:18:40.521,1505.3,1249.9,1476.3,1509.4
2026-06-21 23:18:40.522,1501.3,1249.9,1477.1,1507
2026-06-21 23:18:40.523,1502.1,1248.3,1477.9,1502.9
2026-06-21 23:18:40.524,1501.3,1247.5,1476.3,1501.3
2026-06-21 23:18:40.525,1502.9,1245.9,1475.5,1502.9
2026-06-21 23:18:40.526,1502.9,1247.5,1474.7,1507.8
2026-06-21 23:18:40.527,1502.1,1246.7,1474.7,1511
2026-06-21 23:18:40.528,1502.1,1245.9,1476.3,1511.8
2026-06-21 23:18:40.529,1506.2,1248.3,1477.1,1518.2
2026-06-21 23:18:40.530,1502.9,1251.5,1475.5,1520.7
2026-06-21 23:18:40.531,1506.2,1249.1,1475.5,1516.6
2026-06-21 23:18:40.532,1503.7,1251.5,1474.7,1513.4
2026-06-21 23:18:40.533,1504.5,1248.3,1475.5,1509.4
2026-06-21 23:18:40.534,1504.5,1246.7,1475.5,1502.9
2026-06-21 23:18:40.535,1502.1,1250.7,1474.7,1502.9
2026-06-21 23:18:40.536,1505.3,1248.3,1471.5,1510.2
2026-06-21 23:18:40.537,1502.9,1244.2,1475.5,1515
2026-06-21 23:18:40.538,1504.5,1249.1,1473.1,1518.2
2026-06-21 23:18:40.539,1502.1,1245.9,1475.5,1514.2
2026-06-21 23:18:40.540,1503.7,1250.7,1477.1,1519.9
2026-06-21 23:18:40.541,1505.3,1248.3,1473.1,1519
2026-06-21 23:18:40.542,1503.7,1247.5,1474.7,1517.4
2026-06-21 23:18:40.543,1504.5,1247.5,1474.7,1502.9
2026-06-21 23:18:40.544,1504.5,1247.5,1473.9,1502.9
2026-06-21 23:18:40.545,1502.1,1248.3,1474.7,1502.1
2026-06-21 23:18:40.546,1507.8,1248.3,1469.9,1498.9
2026-06-21 23:18:40.547,1502.1,1249.1,1473.1,1495.7
2026-06-21 23:18:40.548,1505.3,1249.1,1472.3,1500.5
2026-06-21 23:18:40.549,1502.9,1249.1,1472.3,1510.2
2026-06-21 23:18:40.550,1502.9,1252.3,1472.3,1514.2
2026-06-21 23:18:40.551,1506.2,1249.9,1475.5,1517.4
2026-06-21 23:18:40.552,1505.3,1248.3,1473.9,1523.1
2026-06-21 23:18:40.553,1506.2,1251.5,1474.7,1527.1
2026-06-21 23:18:40.554,1503.7,1249.9,1475.5,1523.1
2026-06-21 23:18:40.555,1502.9,1249.1,1473.9,1514.2
2026-06-21 23:18:40.556,1503.7,1249.9,1473.9,1515
2026-06-21 23:18:40.557,1506.2,1249.9,1473.9,1514.2
2026-06-21 23:18:40.558,1508.6,1248.3,1469.1,1500.5
2026-06-21 23:18:40.559,1504.5,1249.9,1469.9,1500.5
2026-06-21 23:18:40.560,1502.1,1248.3,1471.5,1511
2026-06-21 23:18:40.561,1502.9,1246.7,1472.3,1511.8
2026-06-21 23:18:40.562,1502.9,1248.3,1472.3,1502.1
2026-06-21 23:18:40.563,1503.7,1245.9,1473.9,1507
2026-06-21 23:18:40.564,1505.3,1248.3,1472.3,1507
2026-06-21 23:18:40.565,1505.3,1249.9,1471.5,1507
2026-06-21 23:18:40.566,1505.3,1249.1,1472.3,1507
2026-06-21 23:18:40.577,1504.5,1251.5,1469.9,1511
2026-06-21 23:18:40.578,1499.7,1250.7,1474.7,1513.4
2026-06-21 23:18:40.579,1501.3,1250.7,1475.5,1507
2026-06-21 23:18:40.580,1501.3,1248.3,1473.9,1498.9
2026-06-21 23:18:40.581,1501.3,1251.5,1469.9,1510.2
2026-06-21 23:18:40.582,1501.3,1250.7,1469.9,1513.4
2026-06-21 23:18:40.583,1502.1,1249.9,1469.9,1516.6
2026-06-21 23:18:40.584,1502.1,1248.3,1474.7,1520.7
2026-06-21 23:18:40.585,1501.3,1245.9,1473.9,1523.9
2026-06-21 23:18:40.586,1504.5,1247.5,1473.9,1514.2
2026-06-21 23:18:40.587,1503.7,1246.7,1473.1,1514.2
2026-06-21 23:18:40.588,1502.1,1246.7,1472.3,1513.4
2026-06-21 23:18:40.589,1502.1,1245.9,1473.9,1514.2
2026-06-21 23:18:40.590,1505.3,1247.5,1472.3,1509.4
2026-06-21 23:18:40.591,1502.9,1246.7,1473.1,1509.4
2026-06-21 23:18:40.592,1503.7,1248.3,1474.7,1507
2026-06-21 23:18:40.593,1502.1,1245.9,1472.3,1507
2026-06-21 23:18:40.594,1502.9,1249.1,1473.9,1511
2026-06-21 23:18:40.595,1508.6,1249.1,1473.1,1502.9
2026-06-21 23:18:40.596,1506.2,1249.1,1469.1,1498.9
2026-06-21 23:18:40.597,1505.3,1252.3,1469.1,1495.7
2026-06-21 23:18:40.598,1504.5,1247.5,1469.1,1502.9
2026-06-21 23:18:40.599,1508.6,1245.9,1473.9,1502.9
2026-06-21 23:18:40.600,1506.2,1248.3,1475.5,1519
2026-06-21 23:18:40.601,1508.6,1249.9,1477.1,1514.2
2026-06-21 23:18:40.602,1508.6,1249.9,1469.1,1514.2
2026-06-21 23:18:40.603,1504.5,1249.1,1473.9,1511
2026-06-21 23:18:40.604,1502.9,1242.6,1473.1,1511.8
2026-06-21 23:18:40.605,1507.8,1244.2,1473.9,1512.6
2026-06-21 23:18:40.606,1508.6,1244.2,1474.7,1513.4
2026-06-21 23:18:40.607,1510.2,1247.5,1473.9,1511
2026-06-21 23:18:40.608,1509.4,1253.1,1473.1,1511
2026-06-21 23:18:40.609,1510.2,1259.6,1472.3,1507.8
2026-06-21 23:18:40.610,1508.6,1257.9,1472.3,1507
2026-06-21 23:18:40.611,1507.8,1255.5,1474.7,1501.3
2026-06-21 23:18:40.612,1507.8,1251.5,1473.9,1511
2026-06-21 23:18:40.613,1508.6,1251.5,1473.1,1515
2026-06-21 23:18:40.614,1510.2,1249.9,1472.3,1513.4
2026-06-21 23:18:40.615,1506.2,1246.7,1474.7,1514.2
2026-06-21 23:18:40.616,1506.2,1245.9,1469.1,1514.2
2026-06-21 23:18:40.617,1505.3,1255.5,1469.9,1514.2
2026-06-21 23:18:40.618,1507,1254.7,1469.1,1514.2
2026-06-21 23:18:40.619,1507,1253.1,1469.1,1515.8
2026-06-21 23:18:40.620,1508.6,1253.9,1473.9,1513.4
2026-06-21 23:18:40.621,1506.2,1251.5,1469.9,1507.8
2026-06-21 23:18:40.622,1508.6,1249.9,1473.1,1511.8
2026-06-21 23:18:40.623,1508.6,1252.3,1471.5,1511
2026-06-21 23:18:40.624,1510.2,1249.1,1469.1,1511
2026-06-21 23:18:40.625,1506.2,1246.7,1473.1,1511.8
2026-06-21 23:18:40.626,1508.6,1249.9,1469.1,1512.6
2026-06-21 23:18:40.617,1505.3,1248.3,1469.9,1511.8
2026-06-21 23:18:40.618,1502.9,1247.5,1471.5,1514.2
2026-06-21 23:18:40.619,1501.3,1250.7,1471.5,1523.1
2026-06-21 23:18:40.620,1502.1,1253.1,1472.3,1521.5
2026-06-21 23:18:40.621,1501.3,1252.3,1472.3,1515.8
2026-06-21 23:18:40.622,1502.1,1248.3,1471.5,1515
2026-06-21 23:18:40.623,1502.1,1248.3,1472.3,1515.8
2026-06-21 23:18:40.624,1503.7,1248.3,1472.3,1512.6
2026-06-21 23:18:40.625,1506.2,1251.5,1469.1,1508.6
2026-06-21 23:18:40.626,1507.8,1256.3,1469.1,1507.8
2026-06-21 23:18:40.627,1502.1,1245.9,1473.1,1511.8
2026-06-21 23:18:40.628,1502.9,1243.4,1474.7,1512.6
2026-06-21 23:18:40.629,1502.9,1248.3,1473.9,1511.8
2026-06-21 23:18:40.630,1501.3,1248.3,1473.1,1513.4
2026-06-21 23:18:40.631,1501.3,1247.5,1473.9,1511.8
2026-06-21 23:18:40.632,1504.5,1249.9,1472.3,1513.4
2026-06-21 23:18:40.633,1505.3,1253.9,1472.3,1513.4
2026-06-21 23:18:40.634,1503.7,1252.3,1473.9,1515.8
2026-06-21 23:18:40.635,1503.7,1253.9,1474.7,1517.4
2026-06-21 23:18:40.636,1507.8,1253.9,1472.3,1515.8
2026-06-21 23:18:40.637,1502.1,1248.3,1473.9,1515
2026-06-21 23:18:40.638,1506.2,1249.9,1473.1,1515
2026-06-21 23:18:40.639,1509.4,1246.7,1472.3,1511.8
2026-06-21 23:18:40.640,1507,1244.2,1471.5,1510.2
2026-06-21 23:18:40.641,1506.2,1244.2,1473.1,1510.2
2026-06-21 23:18:40.642,1506.2,1243.4,1473.9,1507.8
2026-06-21 23:18:40.643,1502.9,1249.9,1473.1,1510.2
2026-06-21 23:18:40.644,1502.9,1250.7,1473.9,1512.6
2026-06-21 23:18:40.645,1504.5,1260.4,1469.9,1514.2
2026-06-21 23:18:40.646,1502.9,1261.2,1473.1,1514.2
2026-06-21 23:18:40.647,1502.1,1251.5,1471.5,1514.2
2026-06-21 23:18:40.648,1505.3,1249.1,1473.9,1515.8
2026-06-21 23:18:40.649,1502.1,1246.7,1469.1,1514.2
2026-06-21 23:18:40.650,1506.2,1246.7,1473.9,1515.8
2026-06-21 23:18:40.651,1507.8,1245.9,1469.9,1514.2
2026-06-21 23:18:40.652,1507.8,1250.7,1475.5,1512.6
2026-06-21 23:18:40.653,1502.9,1249.1,1477.1,1513.4
2026-06-21 23:18:40.654,1506.2,1250.7,1476.3,1514.2
2026-06-21 23:18:40.655,1508.6,1248.3,1473.9,1514.2
2026-06-21 23:18:40.656,1508.6,1249.9,1469.1,1513.4
2026-06-21 23:18:40.657,1508.6,1251.5,1469.1,1511
2026-06-21 23:18:40.658,1501.3,1246.7,1469.1,1511
2026-06-21 23:18:40.659,1501.3,1249.9,1469.1,1511.8
2026-06-21 23:18:40.660,1502.1,1251.5,1469.9,1511.8
2026-06-21 23:18:40.661,1502.1,1241.8,1472.3,1514.2
2026-06-21 23:18:40.662,1502.9,1241.8,1469.1,1515.8
2026-06-21 23:18:40.663,1507,1240.2,1471.5,1518.2
2026-06-21 23:18:40.664,1506.2,1240.2,1473.1,1519
2026-06-21 23:18:40.665,1507.8,1244.2,1474.7,1515.8
2026-06-21 23:18:40.666,1506.2,1248.3,1476.3,1515.8
2026-06-21 23:18:40.678,1501.3,1246.7,1473.9,1514.2
2026-06-21 23:18:40.679,1500.5,1267.6,1473.9,1510.2
2026-06-21 23:18:40.680,1501.3,1262,1469.9,1511
2026-06-21 23:18:40.681,1501.3,1259.6,1465.1,1513.4
2026-06-21 23:18:40.682,1500.5,1253.1,1468.3,1511.8
2026-06-21 23:18:40.683,1501.3,1252.3,1471.5,1513.4
2026-06-21 23:18:40.684,1499.7,1252.3,1472.3,1512.6
2026-06-21 23:18:40.685,1498.9,1249.1,1475.5,1514.2
2026-06-21 23:18:40.686,1501.3,1245.9,1475.5,1511.8
2026-06-21 23:18:40.687,1501.3,1248.3,1471.5,1513.4
2026-06-21 23:18:40.688,1501.3,1247.5,1469.9,1511
2026-06-21 23:18:40.689,1500.5,1249.1,1469.1,1513.4
2026-06-21 23:18:40.690,1501.3,1251.5,1475.5,1514.2
2026-06-21 23:18:40.691,1501.3,1249.9,1476.3,1512.6
2026-06-21 23:18:40.692,1502.9,1249.9,1476.3,1512.6
2026-06-21 23:18:40.693,1500.5,1248.3,1476.3,1515
2026-06-21 23:18:40.694,1501.3,1247.5,1476.3,1514.2
2026-06-21 23:18:40.695,1502.1,1248.3,1473.9,1512.6
2026-06-21 23:18:40.696,1504.5,1246.7,1472.3,1514.2
2026-06-21 23:18:40.697,1501.3,1246.7,1473.1,1514.2
2026-06-21 23:18:40.698,1501.3,1245.1,1473.9,1515.8
2026-06-21 23:18:40.699,1500.5,1244.2,1472.3,1515.8
2026-06-21 23:18:40.700,1501.3,1246.7,1471.5,1512.6
2026-06-21 23:18:40.701,1501.3,1253.9,1469.1,1511
2026-06-21 23:18:40.702,1501.3,1253.1,1467.5,1513.4
2026-06-21 23:18:40.703,1504.5,1252.3,1473.1,1511.8
2026-06-21 23:18:40.704,1504.5,1252.3,1479.6,1514.2
2026-06-21 23:18:40.705,1504.5,1249.1,1477.9,1513.4
2026-06-21 23:18:40.706,1507,1251.5,1480.4,1511.8
2026-06-21 23:18:40.707,1510.2,1252.3,1482.8,1511
2026-06-21 23:18:40.708,1505.3,1252.3,1481.2,1512.6
2026-06-21 23:18:40.709,1502.1,1252.3,1477.9,1514.2
2026-06-21 23:18:40.710,1507,1249.9,1476.3,1511
2026-06-21 23:18:40.711,1506.2,1249.1,1474.7,1511.8
2026-06-21 23:18:40.712,1510.2,1252.3,1471.5,1512.6
2026-06-21 23:18:40.713,1507,1251.5,1469.1,1512.6
2026-06-21 23:18:40.714,1506.2,1249.9,1472.3,1511.8
2026-06-21 23:18:40.715,1502.1,1250.7,1472.3,1512.6
2026-06-21 23:18:40.716,1505.3,1251.5,1475.5,1512.6
2026-06-21 23:18:40.717,1506.2,1251.5,1476.3,1511
2026-06-21 23:18:40.718,1504.5,1248.3,1477.1,1513.4
2026-06-21 23:18:40.719,1502.1,1249.1,1476.3,1514.2
2026-06-21 23:18:40.720,1503.7,1249.9,1476.3,1514.2
2026-06-21 23:18:40.721,1511.8,1251.5,1469.1,1514.2
2026-06-21 23:18:40.722,1505.3,1252.3,1469.9,1514.2
2026-06-21 23:18:40.723,1503.7,1252.3,1473.9,1514.2
2026-06-21 23:18:40.724,1507.8,1253.9,1473.1,1514.2
2026-06-21 23:18:40.725,1503.7,1252.3,1465.9,1511.8
2026-06-21 23:18:40.726,1507,1251.5,1471.5,1514.2
2026-06-21 23:18:40.727,1502.1,1251.5,1474.7,1514.2
2026-06-21 23:18:40.720,1501.3,1250.7,1473.1,1514.2
2026-06-21 23:18:40.721,1501.3,1251.5,1469.1,1513.4
2026-06-21 23:18:40.722,1501.3,1249.1,1473.9,1514.2
2026-06-21 23:18:40.723,1504.5,1251.5,1474.7,1514.2
2026-06-21 23:18:40.724,1501.3,1248.3,1477.1,1511.8
2026-06-21 23:18:40.725,1501.3,1249.9,1477.9,1513.4
2026-06-21 23:18:40.726,1501.3,1253.9,1473.9,1512.6
2026-06-21 23:18:40.727,1503.7,1256.3,1466.7,1511.8
2026-06-21 23:18:40.728,1502.9,1257.9,1467.5,1511.8
2026-06-21 23:18:40.729,1502.1,1248.3,1469.9,1512.6
2026-06-21 23:18:40.730,1505.3,1249.1,1475.5,1514.2
2026-06-21 23:18:40.731,1502.9,1251.5,1477.9,1514.2
2026-06-21 23:18:40.732,1504.5,1248.3,1477.1,1513.4
2026-06-21 23:18:40.733,1502.9,1245.9,1477.1,1514.2
2026-06-21 23:18:40.734,1502.9,1245.9,1473.1,1514.2
2026-06-21 23:18:40.735,1505.3,1248.3,1473.9,1514.2
2026-06-21 23:18:40.736,1502.9,1248.3,1473.9,1513.4
2026-06-21 23:18:40.737,1502.9,1249.1,1477.9,1514.2
2026-06-21 23:18:40.738,1502.1,1248.3,1473.9,1512.6
2026-06-21 23:18:40.739,1507,1250.7,1469.1,1513.4
2026-06-21 23:18:40.740,1503.7,1251.5,1466.7,1515
2026-06-21 23:18:40.741,1502.9,1251.5,1473.9,1514.2
2026-06-21 23:18:40.742,1505.3,1246.7,1477.9,1511
2026-06-21 23:18:40.743,1506.2,1248.3,1479.6,1509.4
2026-06-21 23:18:40.744,1510.2,1246.7,1469.1,1510.2
2026-06-21 23:18:40.745,1510.2,1249.9,1466.7,1509.4
2026-06-21 23:18:40.746,1505.3,1248.3,1473.1,1507.8
2026-06-21 23:18:40.747,1504.5,1245.9,1469.9,1510.2
2026-06-21 23:18:40.748,1504.5,1249.1,1473.9,1510.2
2026-06-21 23:18:40.749,1505.3,1252.3,1473.9,1511.8
2026-06-21 23:18:40.750,1505.3,1259.6,1477.9,1511
2026-06-21 23:18:40.751,1504.5,1259.6,1477.9,1511.8
2026-06-21 23:18:40.752,1502.1,1251.5,1477.9,1510.2
2026-06-21 23:18:40.753,1502.1,1250.7,1474.7,1511
2026-06-21 23:18:40.754,1502.9,1249.1,1475.5,1511.8
2026-06-21 23:18:40.755,1507.8,1249.1,1477.1,1511.8
2026-06-21 23:18:40.756,1510.2,1249.1,1481.2,1511
2026-06-21 23:18:40.757,1511,1248.3,1480.4,1511.8
2026-06-21 23:18:40.758,1511.8,1248.3,1477.9,1511.8
2026-06-21 23:18:40.759,1511.8,1248.3,1480.4,1514.2
2026-06-21 23:18:40.760,1507,1251.5,1477.1,1510.2
2026-06-21 23:18:40.761,1507.8,1251.5,1469.9,1511
2026-06-21 23:18:40.762,1508.6,1249.9,1473.9,1509.4
2026-06-21 23:18:40.763,1511,1250.7,1477.1,1512.6
2026-06-21 23:18:40.764,1507.8,1249.9,1477.9,1514.2
2026-06-21 23:18:40.765,1506.2,1249.1,1475.5,1513.4
2026-06-21 23:18:40.766,1504.5,1249.9,1473.9,1511.8
2026-06-21 23:18:40.767,1508.6,1250.7,1469.1,1514.2
2026-06-21 23:18:40.768,1506.2,1244.2,1471.5,1512.6
2026-06-21 23:18:40.769,1502.9,1244.2,1472.3,1514.2
2026-06-21 23:18:40.777,1501.3,1246.7,1466.7,1512.6
2026-06-21 23:18:40.778,1507,1254.7,1475.5,1514.2
2026-06-21 23:18:40.779,1505.3,1257.1,1477.9,1514.2
2026-06-21 23:18:40.780,1504.5,1252.3,1485.2,1514.2
2026-06-21 23:18:40.781,1501.3,1249.1,1482,1514.2
2026-06-21 23:18:40.782,1500.5,1249.9,1477.1,1513.4
2026-06-21 23:18:40.783,1501.3,1249.1,1473.9,1514.2
2026-06-21 23:18:40.784,1501.3,1249.1,1476.3,1514.2
2026-06-21 23:18:40.785,1502.1,1251.5,1475.5,1513.4
2026-06-21 23:18:40.786,1502.1,1249.1,1476.3,1511.8
2026-06-21 23:18:40.787,1500.5,1245.1,1474.7,1512.6
2026-06-21 23:18:40.788,1498.9,1242.6,1473.9,1511.8
2026-06-21 23:18:40.789,1500.5,1244.2,1476.3,1514.2
2026-06-21 23:18:40.790,1501.3,1247.5,1475.5,1514.2
2026-06-21 23:18:40.791,1497.3,1247.5,1477.9,1514.2
2026-06-21 23:18:40.792,1506.2,1248.3,1477.9,1511.8
2026-06-21 23:18:40.793,1510.2,1251.5,1474.7,1510.2
2026-06-21 23:18:40.794,1511.8,1245.9,1476.3,1511.8
2026-06-21 23:18:40.795,1513.4,1249.1,1477.9,1512.6
2026-06-21 23:18:40.796,1508.6,1253.1,1474.7,1511
2026-06-21 23:18:40.797,1504.5,1246.7,1473.9,1514.2
2026-06-21 23:18:40.798,1501.3,1249.1,1473.1,1511.8
2026-06-21 23:18:40.799,1502.9,1248.3,1476.3,1509.4
2026-06-21 23:18:40.800,1502.1,1249.9,1473.9,1507
2026-06-21 23:18:40.801,1502.9,1251.5,1475.5,1507
2026-06-21 23:18:40.802,1501.3,1250.7,1474.7,1511
2026-06-21 23:18:40.803,1503.7,1244.2,1473.1,1511.8
2026-06-21 23:18:40.804,1501.3,1244.2,1473.1,1507
2026-06-21 23:18:40.805,1501.3,1244.2,1472.3,1509.4
2026-06-21 23:18:40.806,1502.1,1241.8,1475.5,1507.8
2026-06-21 23:18:40.807,1502.1,1241,1475.5,1502.9
2026-06-21 23:18:40.808,1501.3,1244.2,1476.3,1507
2026-06-21 23:18:40.809,1501.3,1245.9,1476.3,1510.2
2026-06-21 23:18:40.810,1501.3,1250.7,1478.8,1511.8
2026-06-21 23:18:40.811,1502.9,1259.6,1482.8,1511
2026-06-21 23:18:40.812,1502.1,1262,1481.2,1511
2026-06-21 23:18:40.813,1502.1,1255.5,1481.2,1514.2
2026-06-21 23:18:40.814,1504.5,1249.9,1477.1,1515
2026-06-21 23:18:40.815,1502.1,1248.3,1476.3,1515.8
2026-06-21 23:18:40.816,1502.9,1251.5,1475.5,1515.8
2026-06-21 23:18:40.817,1502.1,1245.9,1465.1,1515
2026-06-21 23:18:40.818,1502.9,1248.3,1473.9,1515
2026-06-21 23:18:40.819,1506.2,1244.2,1473.1,1514.2
2026-06-21 23:18:40.820,1506.2,1245.9,1465.1,1514.2
2026-06-21 23:18:40.821,1502.1,1246.7,1464.2,1514.2
2026-06-21 23:18:40.822,1501.3,1249.1,1465.9,1513.4
2026-06-21 23:18:40.823,1501.3,1244.2,1472.3,1515.8
2026-06-21 23:18:40.824,1501.3,1242.6,1479.6,1514.2
2026-06-21 23:18:40.825,1501.3,1249.9,1487.6,1514.2
2026-06-21 23:18:40.826,1501.3,1249.1,1489.2,1515.8
2026-06-21 23:18:40.817,1501.3,1246.7,1487.6,1514.2
2026-06-21 23:18:40.818,1500.5,1241.8,1461.8,1512.6
2026-06-21 23:18:40.819,1500.5,1240.2,1464.2,1511
2026-06-21 23:18:40.820,1498.9,1241.8,1465.1,1512.6
2026-06-21 23:18:40.821,1498.9,1259.6,1474.7,1514.2
2026-06-21 23:18:40.822,1498.9,1263.6,1476.3,1512.6
2026-06-21 23:18:40.823,1498.9,1259.6,1477.1,1513.4
2026-06-21 23:18:40.824,1494.9,1251.5,1473.1,1513.4
2026-06-21 23:18:40.825,1497.3,1243.4,1474.7,1511.8
2026-06-21 23:18:40.826,1497.3,1249.9,1475.5,1514.2
2026-06-21 23:18:40.827,1501.3,1252.3,1479.6,1511.8
2026-06-21 23:18:40.828,1499.7,1250.7,1477.1,1513.4
2026-06-21 23:18:40.829,1499.7,1248.3,1477.1,1515
2026-06-21 23:18:40.830,1497.3,1251.5,1477.9,1514.2
2026-06-21 23:18:40.831,1498.9,1250.7,1480.4,1514.2
2026-06-21 23:18:40.832,1498.1,1249.9,1477.9,1513.4
2026-06-21 23:18:40.833,1499.7,1247.5,1476.3,1514.2
2026-06-21 23:18:40.834,1497.3,1248.3,1477.9,1514.2
2026-06-21 23:18:40.835,1496.5,1248.3,1477.1,1512.6
2026-06-21 23:18:40.836,1497.3,1248.3,1474.7,1514.2
2026-06-21 23:18:40.837,1494.9,1249.1,1478.8,1512.6
2026-06-21 23:18:40.838,1495.7,1248.3,1477.9,1514.2
2026-06-21 23:18:40.839,1498.1,1247.5,1478.8,1511
2026-06-21 23:18:40.840,1498.1,1244.2,1480.4,1512.6
2026-06-21 23:18:40.841,1497.3,1244.2,1476.3,1511
2026-06-21 23:18:40.842,1497.3,1241.8,1477.1,1511.8
2026-06-21 23:18:40.843,1497.3,1255.5,1477.1,1511.8
2026-06-21 23:18:40.844,1498.9,1257.1,1476.3,1513.4
2026-06-21 23:18:40.845,1501.3,1255.5,1477.1,1511.8
2026-06-21 23:18:40.846,1498.9,1257.9,1476.3,1511.8
2026-06-21 23:18:40.847,1498.1,1258.8,1472.3,1513.4
2026-06-21 23:18:40.848,1499.7,1258.8,1469.9,1514.2
2026-06-21 23:18:40.849,1498.9,1253.9,1473.1,1512.6
2026-06-21 23:18:40.850,1498.9,1250.7,1473.1,1513.4
2026-06-21 23:18:40.851,1498.1,1251.5,1475.5,1512.6
2026-06-21 23:18:40.852,1500.5,1245.9,1479.6,1513.4
2026-06-21 23:18:40.853,1499.7,1249.9,1477.1,1514.2
2026-06-21 23:18:40.854,1499.7,1248.3,1475.5,1511.8
2026-06-21 23:18:40.855,1501.3,1245.9,1475.5,1512.6
2026-06-21 23:18:40.856,1501.3,1250.7,1469.9,1511.8
2026-06-21 23:18:40.857,1507,1249.9,1470.7,1511.8
2026-06-21 23:18:40.858,1502.9,1249.9,1472.3,1513.4
2026-06-21 23:18:40.859,1502.1,1251.5,1473.1,1512.6
2026-06-21 23:18:40.860,1504.5,1249.9,1473.1,1511.8
2026-06-21 23:18:40.861,1504.5,1249.1,1473.1,1512.6
2026-06-21 23:18:40.862,1503.7,1250.7,1473.9,1512.6
2026-06-21 23:18:40.863,1504.5,1252.3,1473.1,1513.4
2026-06-21 23:18:40.864,1502.1,1249.1,1473.9,1512.6
2026-06-21 23:18:40.865,1501.3,1250.7,1473.1,1513.4
2026-06-21 23:18:40.866,1501.3,1251.5,1473.1,1513.4
2026-06-21 23:18:40.877,1501.3,1248.3,1471.5,1513.4
2026-06-21 23:18:40.878,1500.5,1247.5,1469.9,1511
2026-06-21 23:18:40.879,1497.3,1249.1,1473.1,1512.6
2026-06-21 23:18:40.880,1499.7,1251.5,1474.7,1512.6
2026-06-21 23:18:40.881,1499.7,1259.6,1473.1,1513.4
2026-06-21 23:18:40.882,1501.3,1259.6,1475.5,1512.6
2026-06-21 23:18:40.883,1500.5,1251.5,1476.3,1513.4
2026-06-21 23:18:40.884,1501.3,1253.9,1476.3,1513.4
2026-06-21 23:18:40.885,1502.1,1255.5,1485.2,1514.2
2026-06-21 23:18:40.886,1500.5,1253.9,1477.9,1513.4
2026-06-21 23:18:40.887,1500.5,1247.5,1466.7,1513.4
2026-06-21 23:18:40.888,1499.7,1246.7,1466.7,1514.2
2026-06-21 23:18:40.889,1501.3,1249.9,1473.9,1514.2
2026-06-21 23:18:40.890,1500.5,1247.5,1477.1,1514.2
2026-06-21 23:18:40.891,1500.5,1252.3,1477.9,1514.2
2026-06-21 23:18:40.892,1499.7,1249.9,1473.9,1514.2
2026-06-21 23:18:40.893,1500.5,1245.9,1473.1,1514.2
2026-06-21 23:18:40.894,1501.3,1248.3,1466.7,1511.8
2026-06-21 23:18:40.895,1502.9,1249.9,1465.1,1511.8
2026-06-21 23:18:40.896,1501.3,1247.5,1467.5,1513.4
2026-06-21 23:18:40.897,1502.1,1244.2,1476.3,1513.4
2026-06-21 23:18:40.898,1501.3,1244.2,1480.4,1512.6
2026-06-21 23:18:40.899,1500.5,1257.9,1483.6,1507.8
2026-06-21 23:18:40.900,1501.3,1252.3,1480.4,1509.4
2026-06-21 23:18:40.901,1499.7,1247.5,1474.7,1509.4
2026-06-21 23:18:40.902,1499.7,1247.5,1473.9,1510.2
2026-06-21 23:18:40.903,1498.9,1249.1,1473.1,1511.8
2026-06-21 23:18:40.904,1494.9,1242.6,1474.7,1509.4
2026-06-21 23:18:40.905,1498.9,1248.3,1474.7,1510.2
2026-06-21 23:18:40.906,1497.3,1245.9,1475.5,1511.8
2026-06-21 23:18:40.907,1494.9,1241.8,1469.9,1510.2
2026-06-21 23:18:40.908,1498.9,1240.2,1473.1,1509.4
2026-06-21 23:18:40.909,1498.1,1240.2,1474.7,1510.2
2026-06-21 23:18:40.910,1501.3,1238.6,1477.1,1507
2026-06-21 23:18:40.911,1498.1,1242.6,1479.6,1511.8
2026-06-21 23:18:40.912,1494.9,1240.2,1482.8,1511
2026-06-21 23:18:40.913,1494.9,1243.4,1485.2,1512.6
2026-06-21 23:18:40.914,1498.1,1251.5,1483.6,1512.6
2026-06-21 23:18:40.915,1498.1,1260.4,1486.8,1514.2
2026-06-21 23:18:40.916,1498.9,1260.4,1482.8,1511.8
2026-06-21 23:18:40.917,1498.1,1251.5,1465.1,1511.8
2026-06-21 23:18:40.918,1499.7,1255.5,1466.7,1507.8
2026-06-21 23:18:40.919,1501.3,1248.3,1467.5,1509.4
2026-06-21 23:18:40.920,1499.7,1248.3,1475.5,1511.8
2026-06-21 23:18:40.921,1500.5,1250.7,1479.6,1511.8
2026-06-21 23:18:40.922,1501.3,1249.9,1481.2,1514.2
2026-06-21 23:18:40.923,1499.7,1247.5,1477.9,1513.4
2026-06-21 23:18:40.924,1499.7,1246.7,1476.3,1514.2
2026-06-21 23:18:40.925,1498.9,1249.1,1473.1,1511.8
2026-06-21 23:18:40.926,1501.3,1250.7,1468.3,1511
2026-06-21 23:18:40.917,1501.3,1255.5,1471.5,1512.6
2026-06-21 23:18:40.918,1494.9,1251.5,1473.9,1513.4
2026-06-21 23:18:40.919,1498.1,1254.7,1477.1,1513.4
2026-06-21 23:18:40.920,1494.9,1250.7,1481.2,1514.2
2026-06-21 23:18:40.921,1499.7,1256.3,1480.4,1513.4
2026-06-21 23:18:40.922,1499.7,1258.8,1476.3,1514.2
2026-06-21 23:18:40.923,1501.3,1257.1,1473.9,1513.4
2026-06-21 23:18:40.924,1500.5,1253.9,1474.7,1511
2026-06-21 23:18:40.925,1498.9,1249.9,1473.9,1511.8
2026-06-21 23:18:40.926,1497.3,1245.9,1475.5,1511.8
2026-06-21 23:18:40.927,1499.7,1244.2,1478.8,1513.4
2026-06-21 23:18:40.928,1500.5,1241,1482.8,1514.2
2026-06-21 23:18:40.929,1501.3,1241,1482.8,1514.2
2026-06-21 23:18:40.930,1499.7,1241,1477.9,1514.2
2026-06-21 23:18:40.931,1500.5,1247.5,1476.3,1513.4
2026-06-21 23:18:40.932,1500.5,1247.5,1472.3,1513.4
2026-06-21 23:18:40.933,1500.5,1251.5,1469.1,1512.6
2026-06-21 23:18:40.934,1499.7,1250.7,1469.9,1509.4
2026-06-21 23:18:40.935,1500.5,1248.3,1473.1,1513.4
2026-06-21 23:18:40.936,1500.5,1248.3,1473.9,1513.4
2026-06-21 23:18:40.937,1501.3,1247.5,1475.5,1514.2
2026-06-21 23:18:40.938,1502.9,1247.5,1473.9,1507.8
2026-06-21 23:18:40.939,1501.3,1244.2,1473.1,1507.8
2026-06-21 23:18:40.940,1501.3,1251.5,1469.1,1507
2026-06-21 23:18:40.941,1502.1,1246.7,1472.3,1511.8
2026-06-21 23:18:40.942,1501.3,1247.5,1472.3,1510.2
2026-06-21 23:18:40.943,1502.1,1245.9,1476.3,1511
2026-06-21 23:18:40.944,1502.1,1249.9,1479.6,1510.2
2026-06-21 23:18:40.945,1502.9,1249.9,1479.6,1511.8
2026-06-21 23:18:40.946,1502.1,1255.5,1475.5,1512.6
2026-06-21 23:18:40.947,1506.2,1251.5,1477.9,1510.2
2026-06-21 23:18:40.948,1501.3,1251.5,1477.1,1512.6
2026-06-21 23:18:40.949,1501.3,1249.9,1474.7,1511.8
2026-06-21 23:18:40.950,1501.3,1248.3,1473.1,1510.2
2026-06-21 23:18:40.951,1503.7,1246.7,1474.7,1510.2
2026-06-21 23:18:40.952,1502.9,1251.5,1474.7,1513.4
2026-06-21 23:18:40.953,1501.3,1248.3,1476.3,1513.4
2026-06-21 23:18:40.954,1501.3,1247.5,1474.7,1513.4
2026-06-21 23:18:40.955,1504.5,1247.5,1476.3,1512.6
2026-06-21 23:18:40.956,1507,1246.7,1469.1,1511.8
2026-06-21 23:18:40.957,1502.1,1244.2,1469.9,1513.4
2026-06-21 23:18:40.958,1502.1,1243.4,1471.5,1511
2026-06-21 23:18:40.959,1502.1,1260.4,1474.7,1511.8
2026-06-21 23:18:40.960,1504.5,1253.9,1469.9,1514.2
2026-06-21 23:18:40.961,1502.1,1249.9,1474.7,1513.4
2026-06-21 23:18:40.962,1502.1,1250.7,1471.5,1514.2
2026-06-21 23:18:40.963,1502.1,1247.5,1471.5,1513.4
2026-06-21 23:18:40.964,1500.5,1251.5,1469.9,1515
2026-06-21 23:18:40.965,1504.5,1249.9,1474.7,1512.6
2026-06-21 23:18:40.966,1503.7,1250.7,1476.3,1512.6
2026-06-21 23:18:40.977,1502.1,1249.1,1472.3,1513.4
2026-06-21 23:18:40.978,1501.3,1249.9,1476.3,1513.4
2026-06-21 23:18:40.979,1497.3,1249.1,1469.1,1514.2
2026-06-21 23:18:40.980,1498.9,1241,1469.1,1511.8
2026-06-21 23:18:40.981,1498.1,1241,1469.1,1514.2
2026-06-21 23:18:40.982,1499.7,1253.1,1466.7,1511
2026-06-21 23:18:40.983,1500.5,1248.3,1472.3,1514.2
2026-06-21 23:18:40.984,1500.5,1242.6,1475.5,1514.2
2026-06-21 23:18:40.985,1500.5,1249.1,1476.3,1514.2
2026-06-21 23:18:40.986,1500.5,1251.5,1485.2,1514.2
2026-06-21 23:18:40.987,1502.1,1247.5,1487.6,1515.8
2026-06-21 23:18:40.988,1502.9,1251.5,1486,1515
2026-06-21 23:18:40.989,1501.3,1257.9,1473.9,1515
2026-06-21 23:18:40.990,1501.3,1259.6,1469.9,1512.6
2026-06-21 23:18:40.991,1501.3,1255.5,1471.5,1513.4
2026-06-21 23:18:40.992,1501.3,1249.9,1469.9,1511.8
2026-06-21 23:18:40.993,1501.3,1249.1,1465.9,1514.2
2026-06-21 23:18:40.994,1501.3,1248.3,1466.7,1512.6
2026-06-21 23:18:40.995,1501.3,1247.5,1469.1,1513.4
2026-06-21 23:18:40.996,1501.3,1249.9,1471.5,1511.8
2026-06-21 23:18:40.997,1501.3,1249.1,1472.3,1511.8
2026-06-21 23:18:40.998,1501.3,1247.5,1476.3,1510.2
2026-06-21 23:18:40.999,1501.3,1250.7,1476.3,1511.8
2026-06-21 23:18:41.000,1501.3,1249.9,1473.1,1511.8
2026-06-21 23:18:41.001,1501.3,1248.3,1472.3,1511.8
2026-06-21 23:18:41.002,1501.3,1250.7,1475.5,1511.8
2026-06-21 23:18:41.003,1500.5,1247.5,1477.9,1513.4
2026-06-21 23:18:41.004,1502.1,1248.3,1479.6,1511.8
2026-06-21 23:18:41.005,1501.3,1248.3,1477.9,1513.4
2026-06-21 23:18:41.006,1501.3,1246.7,1477.1,1514.2
2026-06-21 23:18:41.007,1501.3,1249.9,1477.9,1512.6
2026-06-21 23:18:41.008,1502.1,1257.1,1475.5,1512.6
2026-06-21 23:18:41.009,1500.5,1250.7,1475.5,1511
2026-06-21 23:18:41.010,1502.1,1247.5,1476.3,1511
2026-06-21 23:18:41.011,1501.3,1247.5,1476.3,1511
2026-06-21 23:18:41.012,1501.3,1252.3,1476.3,1511
2026-06-21 23:18:41.013,1502.1,1257.1,1476.3,1510.2
2026-06-21 23:18:41.014,1504.5,1252.3,1473.1,1511.8
2026-06-21 23:18:41.015,1502.1,1251.5,1474.7,1512.6
2026-06-21 23:18:41.016,1502.1,1249.9,1472.3,1513.4
2026-06-21 23:18:41.017,1502.1,1257.1,1473.1,1513.4
2026-06-21 23:18:41.018,1501.3,1252.3,1475.5,1514.2
2026-06-21 23:18:41.019,1504.5,1249.9,1469.1,1514.2
2026-06-21 23:18:41.020,1504.5,1253.9,1473.1,1511.8
2026-06-21 23:18:41.021,1502.1,1252.3,1473.9,1512.6
2026-06-21 23:18:41.022,1502.1,1252.3,1473.1,1514.2
2026-06-21 23:18:41.023,1501.3,1248.3,1473.9,1514.2
2026-06-21 23:18:41.024,1504.5,1246.7,1472.3,1512.6
2026-06-21 23:18:41.025,1504.5,1248.3,1473.9,1511.8
2026-06-21 23:18:41.026,1502.1,1244.2,1473.9,1512.6
2026-06-21 23:18:41.016,1501.3,1249.1,1473.9,1513.4
2026-06-21 23:18:41.017,1500.5,1249.1,1473.9,1511.8
2026-06-21 23:18:41.018,1501.3,1248.3,1473.9,1513.4
2026-06-21 23:18:41.019,1501.3,1251.5,1473.9,1512.6
2026-06-21 23:18:41.020,1501.3,1249.9,1476.3,1513.4
2026-06-21 23:18:41.021,1501.3,1248.3,1476.3,1513.4
2026-06-21 23:18:41.022,1501.3,1248.3,1476.3,1512.6
2026-06-21 23:18:41.023,1502.1,1249.9,1476.3,1514.2
2026-06-21 23:18:41.024,1500.5,1248.3,1477.9,1515
2026-06-21 23:18:41.025,1502.1,1244.2,1468.3,1513.4
2026-06-21 23:18:41.026,1501.3,1244.2,1473.9,1513.4
2026-06-21 23:18:41.027,1500.5,1244.2,1477.1,1511.8
2026-06-21 23:18:41.028,1501.3,1244.2,1475.5,1511
2026-06-21 23:18:41.029,1501.3,1248.3,1469.9,1512.6
2026-06-21 23:18:41.030,1500.5,1247.5,1473.9,1511.8
2026-06-21 23:18:41.031,1501.3,1249.9,1475.5,1514.2
2026-06-21 23:18:41.032,1502.1,1246.7,1469.1,1512.6
2026-06-21 23:18:41.033,1502.1,1244.2,1473.9,1512.6
2026-06-21 23:18:41.034,1501.3,1245.9,1472.3,1512.6
2026-06-21 23:18:41.035,1501.3,1248.3,1473.1,1514.2
2026-06-21 23:18:41.036,1501.3,1249.9,1475.5,1513.4
2026-06-21 23:18:41.037,1501.3,1247.5,1477.1,1511
2026-06-21 23:18:41.038,1501.3,1250.7,1477.1,1510.2
2026-06-21 23:18:41.039,1502.1,1249.1,1475.5,1512.6
2026-06-21 23:18:41.040,1502.1,1248.3,1475.5,1512.6
2026-06-21 23:18:41.041,1505.3,1252.3,1476.3,1513.4
2026-06-21 23:18:41.042,1501.3,1249.9,1474.7,1512.6
2026-06-21 23:18:41.043,1502.1,1250.7,1475.5,1512.6
2026-06-21 23:18:41.044,1502.1,1249.9,1476.3,1511.8
2026-06-21 23:18:41.045,1501.3,1249.1,1479.6,1511.8
2026-06-21 23:18:41.046,1501.3,1249.9,1477.1,1510.2
2026-06-21 23:18:41.047,1502.9,1247.5,1475.5,1511.8
2026-06-21 23:18:41.048,1502.1,1248.3,1473.9,1507.8
2026-06-21 23:18:41.049,1502.1,1244.2,1469.9,1514.2
2026-06-21 23:18:41.050,1502.1,1240.2,1473.1,1513.4
2026-06-21 23:18:41.051,1503.7,1243.4,1467.5,1514.2
2026-06-21 23:18:41.052,1503.7,1243.4,1473.1,1511.8
2026-06-21 23:18:41.053,1502.9,1248.3,1477.9,1512.6
2026-06-21 23:18:41.054,1502.1,1255.5,1480.4,1511.8
2026-06-21 23:18:41.055,1505.3,1261.2,1483.6,1514.2
2026-06-21 23:18:41.056,1501.3,1251.5,1479.6,1514.2
2026-06-21 23:18:41.057,1502.1,1249.1,1463.4,1514.2
2026-06-21 23:18:41.058,1502.1,1247.5,1463.4,1511.8
2026-06-21 23:18:41.059,1507,1257.9,1469.1,1510.2
2026-06-21 23:18:41.060,1502.1,1255.5,1467.5,1511.8
2026-06-21 23:18:41.061,1504.5,1253.1,1471.5,1511.8
2026-06-21 23:18:41.062,1502.9,1252.3,1468.3,1511
2026-06-21 23:18:41.063,1507,1250.7,1473.9,1514.2
2026-06-21 23:18:41.064,1502.9,1249.1,1475.5,1513.4
2026-06-21 23:18:41.065,1504.5,1251.5,1473.9,1514.2
2026-06-21 23:18:41.078,1501.3,1251.5,1474.7,1514.2
2026-06-21 23:18:41.079,1501.3,1253.9,1473.1,1515
2026-06-21 23:18:41.080,1500.5,1249.1,1475.5,1514.2
2026-06-21 23:18:41.081,1501.3,1248.3,1474.7,1511
2026-06-21 23:18:41.082,1500.5,1251.5,1475.5,1513.4
2026-06-21 23:18:41.083,1501.3,1249.1,1475.5,1515
2026-06-21 23:18:41.084,1501.3,1250.7,1473.1,1513.4
2026-06-21 23:18:41.085,1500.5,1248.3,1473.9,1512.6
2026-06-21 23:18:41.086,1501.3,1251.5,1476.3,1511.8
2026-06-21 23:18:41.087,1501.3,1248.3,1472.3,1514.2
2026-06-21 23:18:41.088,1501.3,1247.5,1474.7,1514.2
2026-06-21 23:18:41.089,1502.1,1244.2,1475.5,1515
2026-06-21 23:18:41.090,1501.3,1248.3,1474.7,1513.4
2026-06-21 23:18:41.091,1502.9,1247.5,1476.3,1514.2
2026-06-21 23:18:41.092,1502.1,1247.5,1476.3,1514.2
2026-06-21 23:18:41.093,1501.3,1244.2,1474.7,1511.8
2026-06-21 23:18:41.094,1502.1,1244.2,1477.9,1511
2026-06-21 23:18:41.095,1502.9,1246.7,1477.9,1514.2
2026-06-21 23:18:41.096,1502.1,1252.3,1476.3,1513.4
2026-06-21 23:18:41.097,1501.3,1246.7,1476.3,1514.2
2026-06-21 23:18:41.098,1502.1,1247.5,1475.5,1514.2
2026-06-21 23:18:41.099,1502.9,1251.5,1476.3,1511.8
2026-06-21 23:18:41.100,1504.5,1248.3,1479.6,1511
2026-06-21 23:18:41.101,1502.1,1252.3,1476.3,1507.8
2026-06-21 23:18:41.102,1501.3,1248.3,1473.1,1511.8
2026-06-21 23:18:41.103,1502.1,1243.4,1465.1,1511
2026-06-21 23:18:41.104,1502.1,1250.7,1466.7,1511
2026-06-21 23:18:41.105,1501.3,1250.7,1468.3,1511
2026-06-21 23:18:41.106,1504.5,1250.7,1473.1,1511
2026-06-21 23:18:41.107,1503.7,1252.3,1475.5,1511
2026-06-21 23:18:41.108,1501.3,1249.9,1476.3,1511
2026-06-21 23:18:41.109,1501.3,1249.9,1476.3,1511.8
2026-06-21 23:18:41.110,1502.9,1246.7,1474.7,1510.2
2026-06-21 23:18:41.111,1502.1,1244.2,1474.7,1511
2026-06-21 23:18:41.112,1504.5,1257.1,1473.9,1511
2026-06-21 23:18:41.113,1501.3,1256.3,1470.7,1512.6
2026-06-21 23:18:41.114,1502.1,1250.7,1473.9,1512.6
2026-06-21 23:18:41.115,1502.1,1249.1,1473.9,1512.6
2026-06-21 23:18:41.116,1502.1,1249.1,1473.1,1511.8
2026-06-21 23:18:41.117,1501.3,1255.5,1475.5,1511.8
2026-06-21 23:18:41.118,1501.3,1253.9,1469.9,1513.4
2026-06-21 23:18:41.119,1507,1248.3,1469.9,1514.2
2026-06-21 23:18:41.120,1502.1,1248.3,1471.5,1511.8
2026-06-21 23:18:41.121,1502.1,1251.5,1473.1,1511.8
2026-06-21 23:18:41.122,1504.5,1248.3,1473.9,1514.2
2026-06-21 23:18:41.123,1502.1,1249.9,1477.1,1514.2
2026-06-21 23:18:41.124,1502.1,1251.5,1475.5,1514.2
2026-06-21 23:18:41.125,1501.3,1249.9,1473.1,1511
2026-06-21 23:18:41.126,1501.3,1250.7,1474.7,1514.2
2026-06-21 23:18:41.127,1502.9,1247.5,1477.1,1514.2
2026-06-21 23:18:41.117,1501.3,1249.1,1473.9,1514.2
2026-06-21 23:18:41.118,1498.9,1253.1,1473.1,1513.4
2026-06-21 23:18:41.119,1499.7,1249.9,1473.1,1513.4
2026-06-21 23:18:41.120,1497.3,1251.5,1475.5,1512.6
2026-06-21 23:18:41.121,1498.9,1247.5,1471.5,1515.8
2026-06-21 23:18:41.122,1499.7,1249.1,1465.1,1513.4
2026-06-21 23:18:41.123,1501.3,1249.9,1467.5,1514.2
2026-06-21 23:18:41.124,1501.3,1249.9,1473.1,1514.2
2026-06-21 23:18:41.125,1501.3,1249.1,1475.5,1514.2
2026-06-21 23:18:41.126,1501.3,1249.9,1477.9,1513.4
2026-06-21 23:18:41.127,1504.5,1248.3,1476.3,1514.2
2026-06-21 23:18:41.128,1501.3,1249.1,1475.5,1512.6
2026-06-21 23:18:41.129,1501.3,1249.9,1476.3,1511.8
2026-06-21 23:18:41.130,1501.3,1247.5,1469.1,1511.8
2026-06-21 23:18:41.131,1501.3,1248.3,1469.1,1512.6
2026-06-21 23:18:41.132,1504.5,1249.1,1466.7,1513.4
2026-06-21 23:18:41.133,1501.3,1249.1,1473.1,1513.4
2026-06-21 23:18:41.134,1502.1,1249.1,1474.7,1514.2
2026-06-21 23:18:41.135,1501.3,1248.3,1478.8,1514.2
2026-06-21 23:18:41.136,1502.1,1244.2,1476.3,1513.4
2026-06-21 23:18:41.137,1499.7,1251.5,1472.3,1510.2
2026-06-21 23:18:41.138,1502.1,1248.3,1467.5,1515
2026-06-21 23:18:41.139,1502.9,1249.9,1472.3,1510.2
2026-06-21 23:18:41.140,1502.1,1249.9,1476.3,1510.2
2026-06-21 23:18:41.141,1502.1,1249.9,1476.3,1510.2
2026-06-21 23:18:41.142,1502.1,1249.1,1477.9,1513.4
2026-06-21 23:18:41.143,1502.9,1251.5,1469.9,1513.4
2026-06-21 23:18:41.144,1502.9,1249.1,1473.9,1511.8
2026-06-21 23:18:41.145,1501.3,1250.7,1477.9,1511
2026-06-21 23:18:41.146,1502.9,1251.5,1477.9,1510.2
2026-06-21 23:18:41.147,1501.3,1251.5,1480.4,1511.8
2026-06-21 23:18:41.148,1502.1,1247.5,1477.1,1507.8
2026-06-21 23:18:41.149,1501.3,1244.2,1476.3,1511.8
2026-06-21 23:18:41.150,1501.3,1248.3,1477.9,1511.8
2026-06-21 23:18:41.151,1502.1,1251.5,1475.5,1512.6
2026-06-21 23:18:41.152,1502.9,1251.5,1469.9,1511.8
2026-06-21 23:18:41.153,1502.1,1252.3,1469.1,1511.8
2026-06-21 23:18:41.154,1501.3,1254.7,1469.1,1511.8
2026-06-21 23:18:41.155,1501.3,1252.3,1472.3,1511.8
2026-06-21 23:18:41.156,1502.1,1251.5,1473.9,1511
2026-06-21 23:18:41.157,1501.3,1251.5,1472.3,1512.6
2026-06-21 23:18:41.158,1502.9,1252.3,1465.1,1511
2026-06-21 23:18:41.159,1502.1,1254.7,1467.5,1514.2
2026-06-21 23:18:41.160,1502.1,1250.7,1482.8,1514.2
2026-06-21 23:18:41.161,1503.7,1253.9,1481.2,1514.2
2026-06-21 23:18:41.162,1501.3,1249.9,1479.6,1514.2
2026-06-21 23:18:41.163,1501.3,1251.5,1479.6,1515.8
2026-06-21 23:18:41.164,1506.2,1251.5,1475.5,1513.4
2026-06-21 23:18:41.165,1502.1,1249.9,1469.1,1514.2
2026-06-21 23:18:41.166,1502.1,1251.5,1469.1,1511.8
2026-06-21 23:18:41.177,1501.3,1253.9,1469.9,1510.2
2026-06-21 23:18:41.178,1496.5,1247.5,1471.5,1511.8
2026-06-21 23:18:41.179,1498.1,1249.9,1469.9,1511.8
2026-06-21 23:18:41.180,1501.3,1252.3,1473.1,1511.8
2026-06-21 23:18:41.181,1502.1,1252.3,1473.1,1514.2
2026-06-21 23:18:41.182,1501.3,1250.7,1473.1,1511.8
2026-06-21 23:18:41.183,1501.3,1251.5,1473.9,1513.4
2026-06-21 23:18:41.184,1501.3,1251.5,1473.9,1511
2026-06-21 23:18:41.185,1499.7,1249.9,1473.9,1511.8
2026-06-21 23:18:41.186,1500.5,1248.3,1476.3,1511.8
2026-06-21 23:18:41.187,1498.9,1249.1,1473.9,1513.4
2026-06-21 23:18:41.188,1501.3,1249.9,1475.5,1510.2
2026-06-21 23:18:41.189,1502.1,1247.5,1475.5,1511
2026-06-21 23:18:41.190,1502.1,1250.7,1474.7,1513.4
2026-06-21 23:18:41.191,1502.1,1245.1,1474.7,1512.6
2026-06-21 23:18:41.192,1502.1,1251.5,1473.1,1511
2026-06-21 23:18:41.193,1502.1,1246.7,1476.3,1511.8
2026-06-21 23:18:41.194,1501.3,1247.5,1473.1,1513.4
2026-06-21 23:18:41.195,1501.3,1244.2,1473.9,1511.8
2026-06-21 23:18:41.196,1502.1,1244.2,1473.9,1513.4
2026-06-21 23:18:41.197,1504.5,1248.3,1473.9,1513.4
2026-06-21 23:18:41.198,1501.3,1248.3,1472.3,1513.4
2026-06-21 23:18:41.199,1502.1,1247.5,1473.1,1507
2026-06-21 23:18:41.200,1505.3,1252.3,1476.3,1507.8
2026-06-21 23:18:41.201,1502.1,1252.3,1477.9,1507.8
2026-06-21 23:18:41.202,1502.1,1252.3,1477.1,1507.8
2026-06-21 23:18:41.203,1502.1,1251.5,1473.9,1513.4
2026-06-21 23:18:41.204,1502.1,1255.5,1475.5,1511.8
2026-06-21 23:18:41.205,1502.1,1254.7,1469.1,1509.4
2026-06-21 23:18:41.206,1502.1,1249.9,1473.1,1510.2
2026-06-21 23:18:41.207,1502.1,1252.3,1473.1,1511
2026-06-21 23:18:41.208,1502.1,1251.5,1473.1,1509.4
2026-06-21 23:18:41.209,1502.9,1250.7,1475.5,1509.4
2026-06-21 23:18:41.210,1502.9,1250.7,1475.5,1510.2
2026-06-21 23:18:41.211,1502.1,1251.5,1475.5,1513.4
2026-06-21 23:18:41.212,1502.9,1249.9,1475.5,1513.4
2026-06-21 23:18:41.213,1502.9,1247.5,1473.9,1514.2
2026-06-21 23:18:41.214,1501.3,1243.4,1474.7,1512.6
2026-06-21 23:18:41.215,1503.7,1244.2,1474.7,1510.2
2026-06-21 23:18:41.216,1502.9,1243.4,1473.9,1514.2
2026-06-21 23:18:41.217,1502.9,1260.4,1469.1,1511
2026-06-21 23:18:41.218,1504.5,1259.6,1466.7,1511
2026-06-21 23:18:41.219,1505.3,1248.3,1469.9,1511.8
2026-06-21 23:18:41.220,1504.5,1249.9,1472.3,1513.4
2026-06-21 23:18:41.221,1502.9,1249.9,1475.5,1513.4
2026-06-21 23:18:41.222,1501.3,1251.5,1477.9,1513.4
2026-06-21 23:18:41.223,1504.5,1250.7,1476.3,1514.2
2026-06-21 23:18:41.224,1502.9,1249.9,1475.5,1514.2
2026-06-21 23:18:41.225,1502.1,1252.3,1472.3,1511
2026-06-21 23:18:41.226,1502.1,1247.5,1465.1,1511
2026-06-21 23:18:41.219,1502.1,1248.3,1465.1,1511.8
2026-06-21 23:18:41.220,1502.1,1249.9,1469.9,1511
2026-06-21 23:18:41.221,1498.9,1249.9,1479.6,1514.2
2026-06-21 23:18:41.222,1500.5,1244.2,1475.5,1511.8
2026-06-21 23:18:41.223,1502.1,1249.1,1473.9,1512.6
2026-06-21 23:18:41.224,1501.3,1247.5,1473.9,1511.8
2026-06-21 23:18:41.225,1500.5,1247.5,1476.3,1512.6
2026-06-21 23:18:41.226,1501.3,1244.2,1474.7,1514.2
2026-06-21 23:18:41.227,1502.1,1251.5,1473.9,1513.4
2026-06-21 23:18:41.228,1501.3,1246.7,1473.9,1513.4
2026-06-21 23:18:41.229,1501.3,1251.5,1474.7,1514.2
2026-06-21 23:18:41.230,1502.1,1249.9,1469.9,1512.6
2026-06-21 23:18:41.231,1501.3,1248.3,1468.3,1513.4
2026-06-21 23:18:41.232,1507,1247.5,1469.9,1513.4
2026-06-21 23:18:41.233,1502.1,1249.1,1473.9,1511.8
2026-06-21 23:18:41.234,1502.9,1249.9,1473.1,1511.8
2026-06-21 23:18:41.235,1501.3,1246.7,1472.3,1511.8
2026-06-21 23:18:41.236,1502.1,1252.3,1473.1,1512.6
2026-06-21 23:18:41.237,1503.7,1252.3,1474.7,1512.6
2026-06-21 23:18:41.238,1502.9,1251.5,1477.9,1511.8
2026-06-21 23:18:41.239,1505.3,1248.3,1480.4,1512.6
2026-06-21 23:18:41.240,1502.1,1249.1,1483.6,1513.4
2026-06-21 23:18:41.241,1502.1,1249.9,1477.9,1511
2026-06-21 23:18:41.242,1503.7,1246.7,1471.5,1507
2026-06-21 23:18:41.243,1502.9,1250.7,1473.9,1511.8
2026-06-21 23:18:41.244,1503.7,1253.9,1475.5,1509.4
2026-06-21 23:18:41.245,1504.5,1251.5,1476.3,1511
2026-06-21 23:18:41.246,1504.5,1249.9,1475.5,1511.8
2026-06-21 23:18:41.247,1502.1,1249.1,1475.5,1510.2
2026-06-21 23:18:41.248,1502.9,1249.1,1473.1,1513.4
2026-06-21 23:18:41.249,1501.3,1249.9,1466.7,1506.2
2026-06-21 23:18:41.250,1501.3,1249.9,1466.7,1510.2
2026-06-21 23:18:41.251,1506.2,1250.7,1469.9,1509.4
2026-06-21 23:18:41.252,1502.9,1251.5,1473.9,1511
2026-06-21 23:18:41.253,1502.1,1252.3,1473.9,1511
2026-06-21 23:18:41.254,1502.1,1249.1,1475.5,1511.8
2026-06-21 23:18:41.255,1504.5,1249.1,1473.9,1509.4
2026-06-21 23:18:41.256,1502.9,1252.3,1475.5,1511.8
2026-06-21 23:18:41.257,1503.7,1251.5,1475.5,1511
2026-06-21 23:18:41.258,1502.1,1251.5,1469.9,1512.6
2026-06-21 23:18:41.259,1502.9,1251.5,1470.7,1511.8
2026-06-21 23:18:41.260,1502.1,1250.7,1472.3,1514.2
2026-06-21 23:18:41.261,1502.1,1251.5,1469.9,1511
2026-06-21 23:18:41.262,1503.7,1251.5,1473.9,1511
2026-06-21 23:18:41.263,1503.7,1251.5,1473.1,1511.8
2026-06-21 23:18:41.264,1502.1,1249.1,1472.3,1512.6
2026-06-21 23:18:41.265,1502.1,1249.9,1473.9,1511.8
2026-06-21 23:18:41.266,1503.7,1253.9,1476.3,1513.4
2026-06-21 23:18:41.267,1502.1,1251.5,1473.9,1512.6
2026-06-21 23:18:41.268,1502.1,1251.5,1471.5,1513.4
2026-06-21 23:18:41.276,1502.1,1251.5,1473.9,1511.8
2026-06-21 23:18:41.277,1502.1,1253.9,1474.7,1511.8
2026-06-21 23:18:41.278,1500.5,1252.3,1471.5,1511.8
2026-06-21 23:18:41.279,1500.5,1251.5,1475.5,1514.2
2026-06-21 23:18:41.280,1498.1,1251.5,1469.9,1513.4
2026-06-21 23:18:41.281,1500.5,1252.3,1475.5,1512.6
2026-06-21 23:18:41.282,1501.3,1249.1,1476.3,1512.6
2026-06-21 23:18:41.283,1500.5,1254.7,1477.1,1513.4
2026-06-21 23:18:41.284,1501.3,1249.9,1474.7,1511
2026-06-21 23:18:41.285,1500.5,1249.9,1474.7,1513.4
2026-06-21 23:18:41.286,1501.3,1246.7,1476.3,1514.2
2026-06-21 23:18:41.287,1502.1,1247.5,1476.3,1513.4
2026-06-21 23:18:41.288,1501.3,1248.3,1473.1,1513.4
2026-06-21 23:18:41.289,1502.1,1250.7,1471.5,1511.8
2026-06-21 23:18:41.290,1502.1,1250.7,1475.5,1514.2
2026-06-21 23:18:41.291,1502.1,1248.3,1473.9,1514.2
2026-06-21 23:18:41.292,1502.1,1246.7,1475.5,1514.2
2026-06-21 23:18:41.293,1502.9,1249.9,1477.1,1512.6
2026-06-21 23:18:41.294,1506.2,1248.3,1477.9,1511.8
2026-06-21 23:18:41.295,1502.1,1251.5,1477.9,1513.4
2026-06-21 23:18:41.296,1502.9,1251.5,1476.3,1514.2
2026-06-21 23:18:41.297,1503.7,1248.3,1475.5,1509.4
2026-06-21 23:18:41.298,1507.8,1253.9,1475.5,1511
2026-06-21 23:18:41.299,1506.2,1249.1,1476.3,1511
2026-06-21 23:18:41.300,1502.9,1251.5,1480.4,1511
2026-06-21 23:18:41.301,1503.7,1251.5,1473.1,1512.6
2026-06-21 23:18:41.302,1504.5,1249.1,1473.1,1511
2026-06-21 23:18:41.303,1504.5,1249.1,1467.5,1511.8
2026-06-21 23:18:41.304,1507,1248.3,1466.7,1511.8
2026-06-21 23:18:41.305,1504.5,1249.9,1471.5,1511.8
2026-06-21 23:18:41.306,1506.2,1249.9,1477.1,1511.8
2026-06-21 23:18:41.307,1507,1249.9,1477.9,1512.6
2026-06-21 23:18:41.308,1503.7,1248.3,1477.9,1510.2
2026-06-21 23:18:41.309,1506.2,1246.7,1477.1,1511.8
2026-06-21 23:18:41.310,1506.2,1249.1,1475.5,1514.2
2026-06-21 23:18:41.311,1502.1,1248.3,1474.7,1512.6
2026-06-21 23:18:41.312,1502.9,1247.5,1472.3,1512.6
2026-06-21 23:18:41.313,1502.1,1248.3,1481.2,1513.4
2026-06-21 23:18:41.314,1502.9,1249.1,1477.9,1511.8
2026-06-21 23:18:41.315,1504.5,1253.9,1477.1,1511.8
2026-06-21 23:18:41.316,1506.2,1251.5,1480.4,1513.4
2026-06-21 23:18:41.317,1502.9,1248.3,1465.1,1514.2
2026-06-21 23:18:41.318,1506.2,1251.5,1472.3,1514.2
2026-06-21 23:18:41.319,1508.6,1259.6,1469.9,1511.8
2026-06-21 23:18:41.320,1507,1257.9,1469.9,1512.6
2026-06-21 23:18:41.321,1504.5,1254.7,1473.1,1512.6
2026-06-21 23:18:41.322,1504.5,1253.9,1473.9,1511
2026-06-21 23:18:41.323,1504.5,1252.3,1467.5,1511.8
2026-06-21 23:18:41.324,1506.2,1248.3,1471.5,1510.2
2026-06-21 23:18:41.325,1504.5,1252.3,1476.3,1514.2
2026-06-21 23:18:41.317,1501.3,1250.7,1481.2,1511.8
2026-06-21 23:18:41.318,1499.7,1251.5,1472.3,1513.4
2026-06-21 23:18:41.319,1501.3,1251.5,1467.5,1513.4
2026-06-21 23:18:41.320,1501.3,1251.5,1468.3,1514.2
2026-06-21 23:18:41.321,1501.3,1250.7,1475.5,1514.2
2026-06-21 23:18:41.322,1501.3,1248.3,1476.3,1513.4
2026-06-21 23:18:41.323,1501.3,1249.9,1475.5,1510.2
2026-06-21 23:18:41.324,1502.1,1249.9,1469.1,1513.4
2026-06-21 23:18:41.325,1502.9,1246.7,1469.9,1512.6
2026-06-21 23:18:41.326,1501.3,1241.8,1477.1,1514.2
2026-06-21 23:18:41.327,1502.1,1240.2,1476.3,1511.8
2026-06-21 23:18:41.328,1502.1,1240.2,1473.9,1513.4
2026-06-21 23:18:41.329,1502.9,1246.7,1469.1,1514.2
2026-06-21 23:18:41.330,1502.1,1251.5,1469.1,1513.4
2026-06-21 23:18:41.331,1503.7,1251.5,1473.1,1514.2
2026-06-21 23:18:41.332,1502.9,1254.7,1479.6,1514.2
2026-06-21 23:18:41.333,1502.9,1254.7,1477.9,1514.2
2026-06-21 23:18:41.334,1502.9,1249.9,1481.2,1511.8
2026-06-21 23:18:41.335,1502.1,1251.5,1477.1,1512.6
2026-06-21 23:18:41.336,1503.7,1251.5,1477.9,1512.6
2026-06-21 23:18:41.337,1505.3,1249.1,1476.3,1511.8
2026-06-21 23:18:41.338,1502.9,1249.1,1473.9,1513.4
2026-06-21 23:18:41.339,1504.5,1249.9,1475.5,1502.9
2026-06-21 23:18:41.340,1507,1248.3,1473.1,1511
2026-06-21 23:18:41.341,1504.5,1251.5,1473.9,1511.8
2026-06-21 23:18:41.342,1502.9,1252.3,1473.1,1507.8
2026-06-21 23:18:41.343,1506.2,1251.5,1474.7,1511
2026-06-21 23:18:41.344,1505.3,1249.9,1473.9,1511
2026-06-21 23:18:41.345,1507,1252.3,1475.5,1511
2026-06-21 23:18:41.346,1505.3,1249.1,1475.5,1511.8
2026-06-21 23:18:41.347,1507.8,1250.7,1473.9,1510.2
2026-06-21 23:18:41.348,1505.3,1249.9,1473.9,1513.4
2026-06-21 23:18:41.349,1505.3,1250.7,1476.3,1514.2
2026-06-21 23:18:41.350,1505.3,1251.5,1473.9,1514.2
2026-06-21 23:18:41.351,1506.2,1250.7,1476.3,1513.4
2026-06-21 23:18:41.352,1507,1252.3,1477.9,1513.4
2026-06-21 23:18:41.353,1503.7,1251.5,1477.9,1513.4
2026-06-21 23:18:41.354,1503.7,1252.3,1481.2,1514.2
2026-06-21 23:18:41.355,1504.5,1249.9,1480.4,1511.8
2026-06-21 23:18:41.356,1503.7,1252.3,1469.1,1514.2
2026-06-21 23:18:41.357,1505.3,1250.7,1465.9,1507.8
2026-06-21 23:18:41.358,1504.5,1249.1,1469.1,1509.4
2026-06-21 23:18:41.359,1504.5,1248.3,1469.9,1511.8
2026-06-21 23:18:41.360,1503.7,1251.5,1477.9,1511.8
2026-06-21 23:18:41.361,1502.1,1246.7,1477.9,1512.6
2026-06-21 23:18:41.362,1503.7,1249.9,1477.9,1512.6
2026-06-21 23:18:41.363,1505.3,1250.7,1478.8,1511
2026-06-21 23:18:41.364,1505.3,1255.5,1476.3,1514.2
2026-06-21 23:18:41.365,1508.6,1254.7,1471.5,1514.2
2026-06-21 23:18:41.366,1505.3,1251.5,1469.1,1514.2
2026-06-21 23:18:41.377,1502.9,1251.5,1471.5,1513.4
2026-06-21 23:18:41.378,1501.3,1253.9,1469.9,1513.4
2026-06-21 23:18:41.379,1501.3,1251.5,1474.7,1511.8
2026-06-21 23:18:41.380,1501.3,1248.3,1472.3,1511.8
2026-06-21 23:18:41.381,1499.7,1251.5,1471.5,1511.8
2026-06-21 23:18:41.382,1500.5,1252.3,1473.9,1511.8
2026-06-21 23:18:41.383,1501.3,1251.5,1475.5,1512.6
2026-06-21 23:18:41.384,1502.9,1249.9,1472.3,1514.2
2026-06-21 23:18:41.385,1502.1,1249.9,1476.3,1512.6
2026-06-21 23:18:41.386,1502.1,1248.3,1473.1,1514.2
2026-06-21 23:18:41.387,1502.9,1252.3,1476.3,1511
2026-06-21 23:18:41.388,1502.1,1253.9,1477.9,1511
2026-06-21 23:18:41.389,1502.9,1253.9,1479.6,1513.4
2026-06-21 23:18:41.390,1502.1,1252.3,1479.6,1514.2
2026-06-21 23:18:41.391,1505.3,1249.1,1477.9,1512.6
2026-06-21 23:18:41.392,1502.1,1252.3,1477.1,1514.2
2026-06-21 23:18:41.393,1506.2,1249.9,1476.3,1514.2
2026-06-21 23:18:41.394,1502.9,1249.9,1476.3,1513.4
2026-06-21 23:18:41.395,1502.1,1247.5,1476.3,1514.2
2026-06-21 23:18:41.396,1502.1,1251.5,1473.1,1512.6
2026-06-21 23:18:41.397,1503.7,1250.7,1473.1,1514.2
2026-06-21 23:18:41.398,1502.1,1249.9,1475.5,1514.2
2026-06-21 23:18:41.399,1502.9,1247.5,1471.5,1509.4
2026-06-21 23:18:41.400,1504.5,1247.5,1477.1,1511
2026-06-21 23:18:41.401,1502.9,1247.5,1473.9,1511
2026-06-21 23:18:41.402,1503.7,1247.5,1473.9,1511.8
2026-06-21 23:18:41.403,1502.9,1247.5,1477.1,1511
2026-06-21 23:18:41.404,1502.9,1257.1,1474.7,1511.8
2026-06-21 23:18:41.405,1506.2,1255.5,1473.1,1511
2026-06-21 23:18:41.406,1507,1255.5,1476.3,1509.4
2026-06-21 23:18:41.407,1506.2,1250.7,1475.5,1511
2026-06-21 23:18:41.408,1506.2,1252.3,1477.9,1511.8
2026-06-21 23:18:41.409,1503.7,1257.1,1477.9,1513.4
2026-06-21 23:18:41.410,1502.9,1256.3,1477.9,1511.8
2026-06-21 23:18:41.411,1506.2,1251.5,1480.4,1513.4
2026-06-21 23:18:41.412,1502.9,1251.5,1477.9,1511.8
2026-06-21 23:18:41.413,1502.9,1251.5,1473.1,1512.6
2026-06-21 23:18:41.414,1504.5,1251.5,1469.1,1511
2026-06-21 23:18:41.415,1502.9,1249.9,1466.7,1512.6
2026-06-21 23:18:41.416,1503.7,1249.1,1471.5,1514.2
2026-06-21 23:18:41.417,1504.5,1252.3,1469.9,1513.4
2026-06-21 23:18:41.418,1502.1,1248.3,1469.9,1514.2
2026-06-21 23:18:41.419,1503.7,1249.9,1468.3,1512.6
2026-06-21 23:18:41.420,1505.3,1251.5,1469.1,1513.4
2026-06-21 23:18:41.421,1504.5,1249.1,1469.1,1513.4
2026-06-21 23:18:41.422,1502.9,1249.9,1477.9,1514.2
2026-06-21 23:18:41.423,1501.3,1249.1,1482.8,1515.8
2026-06-21 23:18:41.424,1504.5,1249.1,1484.4,1514.2
2026-06-21 23:18:41.425,1502.9,1249.9,1477.1,1514.2
2026-06-21 23:18:41.426,1502.9,1253.9,1476.3,1514.2
2026-06-21 23:18:41.416,1501.3,1255.5,1469.1,1514.2
2026-06-21 23:18:41.417,1500.5,1251.5,1466.7,1514.2
2026-06-21 23:18:41.418,1499.7,1251.5,1473.1,1513.4
2026-06-21 23:18:41.419,1499.7,1252.3,1471.5,1513.4
2026-06-21 23:18:41.420,1501.3,1247.5,1472.3,1511.8
2026-06-21 23:18:41.421,1500.5,1249.1,1473.1,1511
2026-06-21 23:18:41.422,1501.3,1249.1,1469.1,1511
2026-06-21 23:18:41.423,1501.3,1248.3,1475.5,1511.8
2026-06-21 23:18:41.424,1502.1,1247.5,1472.3,1511
2026-06-21 23:18:41.425,1501.3,1248.3,1472.3,1513.4
2026-06-21 23:18:41.426,1502.1,1247.5,1469.1,1513.4
2026-06-21 23:18:41.427,1503.7,1249.1,1473.9,1514.2
2026-06-21 23:18:41.428,1502.1,1247.5,1471.5,1512.6
2026-06-21 23:18:41.429,1502.1,1249.1,1469.9,1513.4
2026-06-21 23:18:41.430,1502.1,1249.9,1477.9,1514.2
2026-06-21 23:18:41.431,1502.9,1250.7,1477.9,1514.2
2026-06-21 23:18:41.432,1503.7,1255.5,1484.4,1515
2026-06-21 23:18:41.433,1502.1,1249.9,1487.6,1515.8
2026-06-21 23:18:41.434,1502.9,1249.1,1486,1513.4
2026-06-21 23:18:41.435,1502.1,1249.9,1477.9,1513.4
2026-06-21 23:18:41.436,1501.3,1247.5,1475.5,1509.4
2026-06-21 23:18:41.437,1501.3,1251.5,1473.1,1501.3
2026-06-21 23:18:41.438,1504.5,1249.9,1472.3,1507
2026-06-21 23:18:41.439,1503.7,1249.9,1473.9,1511
2026-06-21 23:18:41.440,1502.1,1249.1,1473.9,1510.2
2026-06-21 23:18:41.441,1502.1,1248.3,1477.9,1511.8
2026-06-21 23:18:41.442,1502.1,1249.9,1477.9,1511.8
2026-06-21 23:18:41.443,1504.5,1248.3,1476.3,1509.4
2026-06-21 23:18:41.444,1503.7,1249.9,1473.9,1511
2026-06-21 23:18:41.445,1502.1,1250.7,1469.1,1510.2
2026-06-21 23:18:41.446,1502.9,1248.3,1469.1,1510.2
2026-06-21 23:18:41.447,1506.2,1252.3,1473.1,1511
2026-06-21 23:18:41.448,1503.7,1249.9,1474.7,1511
2026-06-21 23:18:41.449,1502.1,1252.3,1475.5,1511.8
2026-06-21 23:18:41.450,1502.9,1252.3,1475.5,1512.6
2026-06-21 23:18:41.451,1502.1,1249.1,1475.5,1511.8
2026-06-21 23:18:41.452,1501.3,1249.9,1475.5,1511.8
2026-06-21 23:18:41.453,1502.9,1249.9,1473.1,1514.2
2026-06-21 23:18:41.454,1502.1,1248.3,1473.9,1513.4
2026-06-21 23:18:41.455,1502.1,1249.9,1474.7,1511.8
2026-06-21 23:18:41.456,1505.3,1247.5,1471.5,1512.6
2026-06-21 23:18:41.457,1502.1,1241.8,1473.1,1512.6
2026-06-21 23:18:41.458,1502.9,1244.2,1471.5,1512.6
2026-06-21 23:18:41.459,1503.7,1245.9,1473.1,1514.2
2026-06-21 23:18:41.460,1504.5,1257.9,1471.5,1513.4
2026-06-21 23:18:41.461,1506.2,1259.6,1473.9,1513.4
2026-06-21 23:18:41.462,1502.1,1261.2,1481.2,1515.8
2026-06-21 23:18:41.463,1504.5,1260.4,1480.4,1515.8
2026-06-21 23:18:41.464,1502.9,1253.1,1481.2,1514.2
2026-06-21 23:18:41.465,1502.9,1252.3,1474.7,1515
2026-06-21 23:18:41.477,1501.3,1257.1,1473.1,1513.4
2026-06-21 23:18:41.478,1500.5,1252.3,1473.9,1512.6
2026-06-21 23:18:41.479,1501.3,1248.3,1469.9,1512.6
2026-06-21 23:18:41.480,1502.1,1251.5,1475.5,1513.4
2026-06-21 23:18:41.481,1502.1,1250.7,1477.9,1514.2
2026-06-21 23:18:41.482,1501.3,1250.7,1477.9,1511
2026-06-21 23:18:41.483,1501.3,1251.5,1476.3,1513.4
2026-06-21 23:18:41.484,1501.3,1246.7,1476.3,1513.4
2026-06-21 23:18:41.485,1501.3,1248.3,1474.7,1511.8
2026-06-21 23:18:41.486,1502.1,1244.2,1475.5,1512.6
2026-06-21 23:18:41.487,1502.9,1248.3,1471.5,1511
2026-06-21 23:18:41.488,1502.9,1244.2,1475.5,1514.2
2026-06-21 23:18:41.489,1503.7,1244.2,1474.7,1514.2
2026-06-21 23:18:41.490,1504.5,1246.7,1474.7,1514.2
2026-06-21 23:18:41.491,1502.1,1247.5,1473.1,1513.4
2026-06-21 23:18:41.492,1500.5,1246.7,1476.3,1513.4
2026-06-21 23:18:41.493,1502.9,1249.1,1476.3,1514.2
2026-06-21 23:18:41.494,1502.1,1251.5,1477.9,1515
2026-06-21 23:18:41.495,1502.1,1247.5,1477.9,1513.4
2026-06-21 23:18:41.496,1504.5,1250.7,1476.3,1514.2
2026-06-21 23:18:41.497,1503.7,1249.9,1473.9,1513.4
2026-06-21 23:18:41.498,1501.3,1251.5,1473.1,1512.6
2026-06-21 23:18:41.499,1505.3,1249.9,1471.5,1507.8
2026-06-21 23:18:41.500,1505.3,1246.7,1486,1511.8
2026-06-21 23:18:41.501,1506.2,1247.5,1484.4,1511
2026-06-21 23:18:41.502,1507,1249.9,1478.8,1510.2
2026-06-21 23:18:41.503,1502.1,1247.5,1475.5,1511
2026-06-21 23:18:41.504,1501.3,1247.5,1472.3,1510.2
2026-06-21 23:18:41.505,1501.3,1250.7,1469.1,1507.8
2026-06-21 23:18:41.506,1502.9,1249.9,1474.7,1509.4
2026-06-21 23:18:41.507,1506.2,1248.3,1477.1,1512.6
2026-06-21 23:18:41.508,1502.1,1251.5,1477.9,1511.8
2026-06-21 23:18:41.509,1501.3,1252.3,1477.9,1510.2
2026-06-21 23:18:41.510,1506.2,1251.5,1473.9,1511
2026-06-21 23:18:41.511,1504.5,1248.3,1469.9,1514.2
2026-06-21 23:18:41.512,1502.1,1249.9,1465.1,1511.8
2026-06-21 23:18:41.513,1504.5,1248.3,1465.1,1511
2026-06-21 23:18:41.514,1505.3,1251.5,1469.1,1511.8
2026-06-21 23:18:41.515,1502.1,1249.9,1469.9,1511
2026-06-21 23:18:41.516,1502.1,1251.5,1469.1,1513.4
2026-06-21 23:18:41.517,1503.7,1252.3,1480.4,1515
2026-06-21 23:18:41.518,1504.5,1250.7,1476.3,1514.2
2026-06-21 23:18:41.519,1503.7,1250.7,1473.9,1514.2
2026-06-21 23:18:41.520,1502.1,1249.1,1467.5,1512.6
2026-06-21 23:18:41.521,1501.3,1247.5,1469.1,1513.4
2026-06-21 23:18:41.522,1502.9,1248.3,1465.9,1510.2
2026-06-21 23:18:41.523,1502.1,1245.9,1465.1,1511.8
2026-06-21 23:18:41.524,1506.2,1247.5,1468.3,1514.2
2026-06-21 23:18:41.525,1502.1,1248.3,1465.1,1514.2
2026-06-21 23:18:41.526,1502.1,1249.1,1465.1,1514.2
2026-06-21 23:18:41.519,1502.9,1251.5,1471.5,1513.4
2026-06-21 23:18:41.520,1502.1,1254.7,1477.9,1514.2
2026-06-21 23:18:41.521,1501.3,1253.9,1481.2,1514.2
2026-06-21 23:18:41.522,1498.9,1252.3,1473.1,1511
2026-06-21 23:18:41.523,1501.3,1252.3,1465.9,1507
2026-06-21 23:18:41.524,1500.5,1253.9,1469.1,1511
2026-06-21 23:18:41.525,1500.5,1250.7,1475.5,1512.6
2026-06-21 23:18:41.526,1501.3,1251.5,1477.9,1514.2
2026-06-21 23:18:41.527,1501.3,1251.5,1477.1,1514.2
2026-06-21 23:18:41.528,1502.1,1246.7,1481.2,1512.6
2026-06-21 23:18:41.529,1502.1,1247.5,1475.5,1514.2
2026-06-21 23:18:41.530,1501.3,1248.3,1473.1,1514.2
2026-06-21 23:18:41.531,1502.1,1250.7,1473.9,1511.8
2026-06-21 23:18:41.532,1502.9,1252.3,1473.1,1513.4
2026-06-21 23:18:41.533,1502.9,1250.7,1475.5,1513.4
2026-06-21 23:18:41.534,1501.3,1249.9,1474.7,1510.2
2026-06-21 23:18:41.535,1501.3,1249.9,1473.1,1511.8
2026-06-21 23:18:41.536,1501.3,1250.7,1473.1,1513.4
2026-06-21 23:18:41.537,1502.1,1246.7,1473.1,1514.2
2026-06-21 23:18:41.538,1502.1,1247.5,1475.5,1513.4
2026-06-21 23:18:41.539,1502.1,1247.5,1474.7,1511.8
2026-06-21 23:18:41.540,1502.1,1249.1,1473.1,1502.9
2026-06-21 23:18:41.541,1502.1,1256.3,1473.9,1502.1
2026-06-21 23:18:41.542,1503.7,1251.5,1475.5,1502.1
2026-06-21 23:18:41.543,1502.1,1251.5,1476.3,1510.2
2026-06-21 23:18:41.544,1503.7,1250.7,1477.9,1511.8
2026-06-21 23:18:41.545,1502.9,1248.3,1477.9,1511.8
2026-06-21 23:18:41.546,1502.1,1251.5,1477.9,1511
2026-06-21 23:18:41.547,1504.5,1247.5,1476.3,1510.2
2026-06-21 23:18:41.548,1502.1,1248.3,1473.1,1509.4
2026-06-21 23:18:41.549,1502.9,1250.7,1473.9,1509.4
2026-06-21 23:18:41.550,1502.1,1251.5,1473.1,1511.8
2026-06-21 23:18:41.551,1502.1,1251.5,1472.3,1511
2026-06-21 23:18:41.552,1502.1,1251.5,1474.7,1512.6
2026-06-21 23:18:41.553,1501.3,1249.9,1473.9,1511.8
2026-06-21 23:18:41.554,1502.9,1248.3,1474.7,1511
2026-06-21 23:18:41.555,1502.9,1250.7,1473.1,1512.6
2026-06-21 23:18:41.556,1502.9,1248.3,1473.9,1511
2026-06-21 23:18:41.557,1502.1,1248.3,1473.9,1510.2
2026-06-21 23:18:41.558,1502.1,1251.5,,1511
2026-06-21 23:18:41.559,1502.1,1252.3,1473.1,1511.8
2026-06-21 23:18:41.560,1502.9,1249.9,1473.1,1511.8
2026-06-21 23:18:41.561,1506.2,1251.5,1469.9,1513.4
2026-06-21 23:18:41.562,1503.7,1252.3,1466.7,1511.8
2026-06-21 23:18:41.563,1502.9,1248.3,1469.1,1514.2
2026-06-21 23:18:41.564,1502.9,1249.1,1467.5,1511.8
2026-06-21 23:18:41.565,1501.3,1249.9,1468.3,1514.2
2026-06-21 23:18:41.566,1505.3,1249.9,1469.1,1513.4
2026-06-21 23:18:41.567,1502.9,1253.1,1469.9,1514.2
2026-06-21 23:18:41.568,1501.3,1247.5,1469.1,1514.2
2026-06-21 23:18:41.585,,1248.3,1467.5,1513.4
2026-06-21 23:18:41.577,1501.3,1248.3,1475.5,1513.4
2026-06-21 23:18:41.578,1498.9,1244.2,1476.3,1514.2
2026-06-21 23:18:41.579,1498.9,1248.3,1481.2,1514.2
2026-06-21 23:18:41.580,1500.5,1246.7,1482,1514.2
2026-06-21 23:18:41.581,1499.7,1249.9,1477.1,1514.2
2026-06-21 23:18:41.582,1500.5,1251.5,1473.9,1514.2
2026-06-21 23:18:41.583,1499.7,1257.1,1474.7,1513.4
2026-06-21 23:18:41.584,1502.1,,1477.9,1514.2
2026-06-21 23:18:41.585,1499.7,1253.9,1473.9,1514.2
2026-06-21 23:18:41.586,1501.3,1244.2,1472.3,1514.2
2026-06-21 23:18:41.587,1501.3,1244.2,1471.5,1514.2
2026-06-21 23:18:41.588,1501.3,1244.2,1469.9,1512.6
2026-06-21 23:18:41.589,1501.3,1249.9,1473.1,1513.4
2026-06-21 23:18:41.590,1501.3,1248.3,1469.9,1512.6
2026-06-21 23:18:41.591,1502.9,1247.5,1471.5,1511.8
2026-06-21 23:18:41.592,1502.9,1248.3,1472.3,1511
2026-06-21 23:18:41.593,1502.9,1248.3,1476.3,1511.8
2026-06-21 23:18:41.594,1502.1,1251.5,1475.5,1514.2
2026-06-21 23:18:41.595,1502.1,1249.9,1473.9,1512.6
2026-06-21 23:18:41.596,1502.1,1248.3,1473.1,1510.2
2026-06-21 23:18:41.597,1502.1,1251.5,1472.3,
2026-06-21 23:18:41.598,1502.9,1255.5,1475.5,1507
2026-06-21 23:18:41.599,1502.1,1246.7,1477.1,1507
2026-06-21 23:18:41.600,1505.3,1244.2,1481.2,1511
2026-06-21 23:18:41.601,1501.3,1249.1,1476.3,1514.2
2026-06-21 23:18:41.602,1504.5,1252.3,1469.9,1511
2026-06-21 23:18:41.603,1501.3,1252.3,1465.9,1512.6
2026-06-21 23:18:41.604,1502.1,1252.3,1472.3,1512.6
2026-06-21 23:18:41.605,1502.1,1249.9,1466.7,1511.8
2026-06-21 23:18:41.606,1502.1,1250.7,1475.5,1514.2
2026-06-21 23:18:41.607,1501.3,1248.3,1477.9,1512.6
2026-06-21 23:18:41.608,1502.1,1250.7,1481.2,1507
2026-06-21 23:18:41.609,1505.3,1245.9,1479.6,1510.2
2026-06-21 23:18:41.610,1502.9,1241.8,1481.2,1510.2
2026-06-21 23:18:41.611,1503.7,1246.7,1481.2,1511.8
2026-06-21 23:18:41.612,1502.9,1244.2,1474.7,1513.4
2026-06-21 23:18:41.613,1502.1,1247.5,1466.7,1513.4
2026-06-21 23:18:41.614,1502.1,1248.3,1465.1,1511.8
2026-06-21 23:18:41.615,1502.1,1250.7,1457.8,1511
2026-06-21 23:18:41.616,1502.1,1251.5,,1510.2
2026-06-21 23:18:41.617,1502.9,1255.5,1464.2,1511
2026-06-21 23:18:41.618,1501.3,1249.9,1467.5,1511.8
2026-06-21 23:18:41.619,1501.3,1247.5,1476.3,1513.4
2026-06-21 23:18:41.620,1503.7,1250.7,1466.7,1509.4
2026-06-21 23:18:41.621,1504.5,1254.7,1481.2,1511.8
2026-06-21 23:18:41.622,1502.1,1251.5,1481.2,1511.8
2026-06-21 23:18:41.623,1502.1,1250.7,1476.3,1511.8
2026-06-21 23:18:41.624,1502.1,1249.1,1471.5,1510.2
2026-06-21 23:18:41.625,1504.5,1249.1,1465.1,1512.6
2026-06-21 23:18:41.626,1502.1,1244.2,1466.7,1509.4
2026-06-21 23:18:41.618,1501.3,1244.2,1469.9,1512.6
2026-06-21 23:18:41.619,1499.7,1243.4,1471.5,1511
2026-06-21 23:18:41.620,1501.3,1251.5,1471.5,1514.2
2026-06-21 23:18:41.621,1501.3,1253.9,1474.7,1514.2
2026-06-21 23:18:41.622,1501.3,1255.5,1467.5,1511.8
2026-06-21 23:18:41.623,1498.9,1257.9,1472.3,1514.2
2026-06-21 23:18:41.624,1501.3,1253.9,1474.7,1514.2
2026-06-21 23:18:41.625,1502.1,1251.5,1477.9,1514.2
2026-06-21 23:18:41.626,1501.3,1248.3,1477.9,1511.8
2026-06-21 23:18:41.627,1502.1,1249.1,1469.1,1511.8
2026-06-21 23:18:41.628,1502.1,1255.5,1474.7,1514.2
2026-06-21 23:18:41.629,1502.1,1253.1,1478.8,1513.4
2026-06-21 23:18:41.630,1502.1,1253.1,1477.9,1513.4
2026-06-21 23:18:41.631,1502.1,1251.5,1476.3,1514.2
2026-06-21 23:18:41.632,1502.1,1251.5,1473.1,1513.4
2026-06-21 23:18:41.633,1502.1,1250.7,1471.5,1513.4
2026-06-21 23:18:41.634,1502.9,1248.3,1475.5,1513.4
2026-06-21 23:18:41.635,1502.1,1249.1,1475.5,1511.8
2026-06-21 23:18:41.636,1502.1,1248.3,1477.1,1515.8
2026-06-21 23:18:41.637,1501.3,1248.3,1475.5,1513.4
2026-06-21 23:18:41.638,1502.9,1248.3,1475.5,1513.4
2026-06-21 23:18:41.639,1506.2,1249.1,1474.7,1510.2
2026-06-21 23:18:41.640,1502.1,1248.3,1476.3,1510.2
2026-06-21 23:18:41.641,1504.5,1250.7,1475.5,1509.4
2026-06-21 23:18:41.642,1502.1,1248.3,1474.7,1507
2026-06-21 23:18:41.643,1501.3,1248.3,1471.5,1509.4
2026-06-21 23:18:41.644,1502.9,1247.5,1469.9,1512.6
2026-06-21 23:18:41.645,1502.1,1247.5,1469.9,1509.4
2026-06-21 23:18:41.646,1502.1,1249.1,1465.1,1511.8
2026-06-21 23:18:41.647,1502.1,1246.7,1465.1,1510.2
2026-06-21 23:18:41.648,1502.1,1247.5,1466.7,1511
2026-06-21 23:18:41.649,1502.1,1244.2,1477.1,1511.8
2026-06-21 23:18:41.650,1502.1,1245.9,1482.8,1510.2
2026-06-21 23:18:41.651,1502.1,1244.2,1482.8,1502.9
2026-06-21 23:18:41.652,1502.1,1244.2,1477.9,1509.4
2026-06-21 23:18:41.653,1502.1,1246.7,1479.6,1511
2026-06-21 23:18:41.654,1501.3,1251.5,1482.8,1514.2
2026-06-21 23:18:41.655,1502.1,1253.9,1482.8,1513.4
2026-06-21 23:18:41.656,1502.1,1252.3,1479.6,1514.2
2026-06-21 23:18:41.657,1503.7,1247.5,1477.9,1511
2026-06-21 23:18:41.658,1508.6,1253.1,1467.5,1514.2
2026-06-21 23:18:41.659,1504.5,1257.1,1473.1,1511
2026-06-21 23:18:41.660,1505.3,1260.4,1472.3,1511
2026-06-21 23:18:41.661,1502.9,1246.7,1467.5,1514.2
2026-06-21 23:18:41.662,1504.5,1250.7,1469.9,1514.2
2026-06-21 23:18:41.663,1502.1,1251.5,1473.1,1512.6
2026-06-21 23:18:41.664,1502.9,1250.7,1466.7,1514.2
2026-06-21 23:18:41.665,1502.1,1251.5,1469.1,1512.6
2026-06-21 23:18:41.666,1505.3,1248.3,1473.1,1512.6
2026-06-21 23:18:41.667,1502.9,1249.9,1473.1,1511.8
2026-06-21 23:18:41.677,1507.8,1248.3,1469.1,1512.6
2026-06-21 23:18:41.678,1502.1,1248.3,1473.1,1514.2
2026-06-21 23:18:41.679,1498.1,1249.9,1473.9,1514.2
2026-06-21 23:18:41.680,1498.1,1249.1,1470.7,1514.2
2026-06-21 23:18:41.681,1499.7,1253.9,1472.3,1515
2026-06-21 23:18:41.682,1501.3,1251.5,1473.9,1512.6
2026-06-21 23:18:41.683,1501.3,1245.9,1473.1,1511.8
2026-06-21 23:18:41.684,1501.3,1247.5,1474.7,1512.6
2026-06-21 23:18:41.685,1501.3,1249.9,1471.5,1511.8
2026-06-21 23:18:41.686,1501.3,1248.3,1473.1,1511.8
2026-06-21 23:18:41.687,1501.3,1245.9,1476.3,1514.2
2026-06-21 23:18:41.688,1502.1,1244.2,1474.7,1512.6
2026-06-21 23:18:41.689,1501.3,1243.4,1475.5,1514.2
2026-06-21 23:18:41.690,1504.5,1241,1475.5,1512.6
2026-06-21 23:18:41.691,1501.3,1241,1473.9,1511.8
2026-06-21 23:18:41.692,1502.1,1249.1,1473.1,1511
2026-06-21 23:18:41.693,1502.9,1249.9,1476.3,1513.4
2026-06-21 23:18:41.694,1502.1,1251.5,1477.9,1513.4
2026-06-21 23:18:41.695,1502.1,1251.5,1479.6,1514.2
2026-06-21 23:18:41.696,1506.2,1253.9,1482.8,1512.6
2026-06-21 23:18:41.697,1502.1,1256.3,1482,1514.2
2026-06-21 23:18:41.698,1502.9,1252.3,1477.1,1510.2
2026-06-21 23:18:41.699,1504.5,1247.5,1476.3,1510.2
2026-06-21 23:18:41.700,1503.7,1245.9,1473.9,1511.8
2026-06-21 23:18:41.701,1502.9,1247.5,1469.9,1510.2
2026-06-21 23:18:41.702,1503.7,1246.7,1468.3,1507
2026-06-21 23:18:41.703,1504.5,1248.3,1467.5,1509.4
2026-06-21 23:18:41.704,1506.2,1244.2,1467.5,1507.8
2026-06-21 23:18:41.705,1502.9,1249.9,1469.1,1507.8
2026-06-21 23:18:41.706,1504.5,1247.5,1475.5,1511.8
2026-06-21 23:18:41.707,1505.3,1252.3,1477.1,1511.8
2026-06-21 23:18:41.708,1504.5,1257.1,1474.7,1511
2026-06-21 23:18:41.709,1506.2,1254.7,1477.9,1511.8
2026-06-21 23:18:41.710,1502.9,1252.3,1477.9,1507.8
2026-06-21 23:18:41.711,1503.7,1251.5,1473.9,1511.8
2026-06-21 23:18:41.712,1506.2,1248.3,1473.1,1509.4
2026-06-21 23:18:41.713,1505.3,1241.8,1476.3,1511.8
2026-06-21 23:18:41.714,1502.1,1245.9,1473.9,1513.4
2026-06-21 23:18:41.715,1505.3,1244.2,1477.1,1507.8
2026-06-21 23:18:41.716,1501.3,1244.2,1477.9,1513.4
2026-06-21 23:18:41.717,1506.2,1242.6,1483.6,1511.8
2026-06-21 23:18:41.718,1502.1,1247.5,1481.2,1514.2
2026-06-21 23:18:41.719,1502.1,1252.3,1469.1,1514.2
2026-06-21 23:18:41.720,1502.1,1245.9,1465.1,1512.6
2026-06-21 23:18:41.721,1502.9,1248.3,1471.5,1507.8
2026-06-21 23:18:41.722,1505.3,1249.1,1469.1,1512.6
2026-06-21 23:18:41.723,1502.9,1256.3,1473.1,1514.2
2026-06-21 23:18:41.724,1503.7,1260.4,1469.1,1515
2026-06-21 23:18:41.725,1507.8,1251.5,1472.3,1512.6
2026-06-21 23:18:41.726,1502.1,1251.5,1475.5,1514.2
2026-06-21 23:18:41.719,1506.2,1250.7,1476.3,1514.2
2026-06-21 23:18:41.720,1501.3,1253.1,1479.6,1514.2
2026-06-21 23:18:41.721,1499.7,1257.1,1473.9,1512.6
2026-06-21 23:18:41.722,1501.3,1251.5,1473.9,1511.8
2026-06-21 23:18:41.723,1498.9,1248.3,1471.5,1513.4
2026-06-21 23:18:41.724,1502.1,1251.5,1472.3,1514.2
2026-06-21 23:18:41.725,1499.7,1249.1,1474.7,1515
2026-06-21 23:18:41.726,1501.3,1249.1,1475.5,1514.2
2026-06-21 23:18:41.727,1500.5,1247.5,1473.9,1511.8
2026-06-21 23:18:41.728,1499.7,1245.9,1476.3,1513.4
2026-06-21 23:18:41.729,1502.1,1250.7,1473.9,1514.2
2026-06-21 23:18:41.730,1501.3,1249.1,1477.1,1511.8
2026-06-21 23:18:41.731,1502.1,1246.7,1477.9,1511.8
2026-06-21 23:18:41.732,1501.3,1247.5,1473.1,1514.2
2026-06-21 23:18:41.733,1501.3,1246.7,1469.9,1511.8
2026-06-21 23:18:41.734,1502.1,1251.5,1474.7,1513.4
2026-06-21 23:18:41.735,1502.1,1250.7,1474.7,1512.6
2026-06-21 23:18:41.736,1502.1,1251.5,1477.9,1511.8
2026-06-21 23:18:41.737,1502.1,1250.7,1479.6,1511.8
2026-06-21 23:18:41.738,1501.3,1248.3,1481.2,1511
2026-06-21 23:18:41.739,1506.2,1249.1,1483.6,1513.4
2026-06-21 23:18:41.740,1501.3,1246.7,1483.6,1511
2026-06-21 23:18:41.741,1503.7,1251.5,1472.3,1512.6
2026-06-21 23:18:41.742,1503.7,1245.9,1476.3,1512.6
2026-06-21 23:18:41.743,1504.5,1247.5,1473.9,1511.8
2026-06-21 23:18:41.744,1502.1,1244.2,1474.7,1511
2026-06-21 23:18:41.745,1506.2,1246.7,1467.5,1511.8
2026-06-21 23:18:41.746,1502.1,1250.7,1467.5,1511
2026-06-21 23:18:41.747,1504.5,1254.7,1475.5,1512.6
2026-06-21 23:18:41.748,1504.5,1249.9,1477.1,1513.4
2026-06-21 23:18:41.749,1502.1,1253.9,1473.9,1511.8
2026-06-21 23:18:41.750,1502.9,1252.3,1472.3,1511
2026-06-21 23:18:41.751,1507,1251.5,1473.9,1511
2026-06-21 23:18:41.752,1501.3,1249.1,1473.1,1513.4
2026-06-21 23:18:41.753,1502.1,1249.1,1473.9,1509.4
2026-06-21 23:18:41.754,1502.1,1249.1,1476.3,1507.8
2026-06-21 23:18:41.755,1502.9,1253.9,1479.6,1512.6
2026-06-21 23:18:41.756,1502.1,1252.3,1481.2,1514.2
2026-06-21 23:18:41.757,1502.1,1250.7,1482.8,1513.4
2026-06-21 23:18:41.758,1502.1,1251.5,1479.6,1511.8
2026-06-21 23:18:41.759,1502.1,1247.5,1477.9,1511.8
2026-06-21 23:18:41.760,1501.3,1252.3,1471.5,1511.8
2026-06-21 23:18:41.761,1502.9,1248.3,1473.1,1514.2
2026-06-21 23:18:41.762,1506.2,1253.9,1473.9,1511.8
2026-06-21 23:18:41.763,1505.3,1251.5,1472.3,1512.6
2026-06-21 23:18:41.764,1501.3,1249.9,1474.7,1514.2
2026-06-21 23:18:41.765,1506.2,1246.7,1471.5,1514.2
2026-06-21 23:18:41.766,1502.1,1249.9,1465.1,1514.2
2026-06-21 23:18:41.767,1502.1,1249.1,1465.1,1512.6
2026-06-21 23:18:41.768,1502.9,1249.9,1464.2,1512.6
2026-06-21 23:18:41.777,1501.3,1249.9,1469.9,1514.2
2026-06-21 23:18:41.778,1501.3,1248.3,1476.3,1511.8
2026-06-21 23:18:41.779,1501.3,1250.7,1473.9,1511.8
2026-06-21 23:18:41.780,1498.9,1249.9,1475.5,1514.2
2026-06-21 23:18:41.781,1501.3,1254.7,1475.5,1513.4
2026-06-21 23:18:41.782,1501.3,1251.5,1469.1,1511.8
2026-06-21 23:18:41.783,1501.3,1251.5,1469.9,1513.4
2026-06-21 23:18:41.784,1502.1,1249.9,1471.5,1513.4
2026-06-21 23:18:41.785,1501.3,1248.3,1474.7,1514.2
2026-06-21 23:18:41.786,1502.1,1248.3,1475.5,1511.8
2026-06-21 23:18:41.787,1502.1,1248.3,1476.3,1514.2
2026-06-21 23:18:41.788,1501.3,1244.2,1477.1,1513.4
2026-06-21 23:18:41.789,1501.3,1249.1,1476.3,1514.2
2026-06-21 23:18:41.790,1501.3,1245.9,1475.5,1514.2
2026-06-21 23:18:41.791,1501.3,1248.3,1473.1,1514.2
2026-06-21 23:18:41.792,1501.3,1244.2,1472.3,1514.2
2026-06-21 23:18:41.793,1502.1,1244.2,1469.9,1514.2
2026-06-21 23:18:41.794,1502.1,1242.6,1475.5,1511.8
2026-06-21 23:18:41.795,1501.3,1245.9,1477.1,1514.2
2026-06-21 23:18:41.796,1501.3,1244.2,1477.9,1513.4
2026-06-21 23:18:41.797,1504.5,1244.2,1476.3,1511.8
2026-06-21 23:18:41.798,1502.1,1244.2,1473.9,1514.2
2026-06-21 23:18:41.799,1502.9,1252.3,1477.9,1507.8
2026-06-21 23:18:41.800,1504.5,1251.5,1469.1,1510.2
2026-06-21 23:18:41.801,1502.1,1251.5,1469.1,1510.2
2026-06-21 23:18:41.802,1502.1,1249.9,1474.7,1507.8
2026-06-21 23:18:41.803,1503.7,1247.5,1477.9,1511
2026-06-21 23:18:41.804,1506.2,1248.3,1474.7,1511.8
2026-06-21 23:18:41.805,1502.1,1248.3,1469.1,1513.4
2026-06-21 23:18:41.806,1502.1,1250.7,1469.1,1510.2
2026-06-21 23:18:41.807,1504.5,1253.9,1477.9,1514.2
2026-06-21 23:18:41.808,1505.3,1252.3,1482.8,1514.2
2026-06-21 23:18:41.809,1504.5,1252.3,1480.4,1511.8
2026-06-21 23:18:41.810,1505.3,1252.3,1476.3,1514.2
2026-06-21 23:18:41.811,1503.7,1249.9,1475.5,1511.8
2026-06-21 23:18:41.812,1502.1,1251.5,1473.1,1512.6
2026-06-21 23:18:41.813,1503.7,1249.9,1473.1,1509.4
2026-06-21 23:18:41.814,1502.9,1250.7,1474.7,1511.8
2026-06-21 23:18:41.815,1502.9,1249.1,1476.3,1511.8
2026-06-21 23:18:41.816,1502.9,1248.3,1476.3,1512.6
2026-06-21 23:18:41.817,1502.9,1246.7,1473.9,1513.4
2026-06-21 23:18:41.818,1503.7,1246.7,1473.9,1511.8
2026-06-21 23:18:41.819,1502.9,1244.2,1471.5,1514.2
2026-06-21 23:18:41.820,1502.9,1247.5,1465.1,1511.8
2026-06-21 23:18:41.821,1503.7,1251.5,1475.5,1512.6
2026-06-21 23:18:41.822,1505.3,1254.7,1473.9,1511
2026-06-21 23:18:41.823,1503.7,1252.3,1481.2,1513.4
2026-06-21 23:18:41.824,1504.5,1251.5,1477.9,1514.2
2026-06-21 23:18:41.825,1503.7,1248.3,1479.6,1513.4
2026-06-21 23:18:41.826,1502.1,1247.5,1471.5,1513.4
2026-06-21 23:18:41.818,1502.9,1248.3,1468.3,1513.4
2026-06-21 23:18:41.819,1502.1,1249.9,1472.3,1513.4
2026-06-21 23:18:41.820,1499.7,1253.9,1476.3,1514.2
2026-06-21 23:18:41.821,1500.5,1251.5,1474.7,1514.2
2026-06-21 23:18:41.822,1502.1,1250.7,1472.3,1515
2026-06-21 23:18:41.823,1502.1,1249.9,1480.4,1515
2026-06-21 23:18:41.824,1500.5,1250.7,1480.4,1514.2
2026-06-21 23:18:41.825,1501.3,1252.3,1479.6,1513.4
2026-06-21 23:18:41.826,1501.3,1252.3,1477.1,1513.4
2026-06-21 23:18:41.827,1501.3,1245.1,1466.7,1513.4
2026-06-21 23:18:41.828,1501.3,1241.8,1467.5,1511.8
2026-06-21 23:18:41.829,1502.1,1240.2,1477.1,1514.2
2026-06-21 23:18:41.830,1501.3,1243.4,1478.8,1511.8
2026-06-21 23:18:41.831,1504.5,1244.2,1475.5,1514.2
2026-06-21 23:18:41.832,1501.3,1244.2,1476.3,1514.2
2026-06-21 23:18:41.833,1501.3,1244.2,1474.7,1513.4
2026-06-21 23:18:41.834,1501.3,1246.7,1475.5,1514.2
2026-06-21 23:18:41.835,1501.3,1249.9,1473.1,1510.2
2026-06-21 23:18:41.836,1502.1,1257.9,1474.7,1514.2
2026-06-21 23:18:41.837,1502.1,1255.5,1473.9,1514.2
2026-06-21 23:18:41.838,1502.1,1255.5,1473.1,1511.8
2026-06-21 23:18:41.839,1503.7,1251.5,1472.3,1507
2026-06-21 23:18:41.840,1502.9,1252.3,1476.3,1510.2
2026-06-21 23:18:41.841,1501.3,1257.1,1476.3,1511.8
2026-06-21 23:18:41.842,1505.3,1255.5,1476.3,1511.8
2026-06-21 23:18:41.843,1507,1249.9,1473.1,1511.8
2026-06-21 23:18:41.844,1503.7,1249.9,1474.7,1511.8
2026-06-21 23:18:41.845,1505.3,1248.3,1474.7,1511.8
2026-06-21 23:18:41.846,1502.1,1250.7,1477.9,1512.6
2026-06-21 23:18:41.847,1502.1,1251.5,1478.8,1512.6
2026-06-21 23:18:41.848,1502.1,1248.3,1482.8,1513.4
2026-06-21 23:18:41.849,1502.1,1244.2,1481.2,1513.4
2026-06-21 23:18:41.850,1502.9,1249.1,1480.4,1511.8
2026-06-21 23:18:41.851,1504.5,1249.9,1477.1,1513.4
2026-06-21 23:18:41.852,1502.1,1248.3,1475.5,1511
2026-06-21 23:18:41.853,1501.3,1251.5,1471.5,1511.8
2026-06-21 23:18:41.854,1505.3,1250.7,1473.1,1511
2026-06-21 23:18:41.855,1506.2,1252.3,1476.3,1512.6
2026-06-21 23:18:41.856,1504.5,1251.5,1476.3,1511.8
2026-06-21 23:18:41.857,1502.1,1251.5,1472.3,1512.6
2026-06-21 23:18:41.858,1502.1,1249.9,1468.3,1507.8
2026-06-21 23:18:41.859,1502.1,1250.7,1466.7,1511
2026-06-21 23:18:41.860,1502.9,1250.7,1469.9,1511.8
2026-06-21 23:18:41.861,1502.1,1246.7,1469.9,1511.8
2026-06-21 23:18:41.862,1504.5,1253.1,1469.9,1511
2026-06-21 23:18:41.863,1501.3,1250.7,1469.1,1513.4
2026-06-21 23:18:41.864,1504.5,1250.7,1471.5,1511.8
2026-06-21 23:18:41.865,1502.9,1250.7,1471.5,1511
2026-06-21 23:18:41.866,1504.5,1250.7,1475.5,1512.6
2026-06-21 23:18:41.867,1502.9,1250.7,1472.3,1514.2
2026-06-21 23:18:41.877,1501.3,1250.7,1472.3,1514.2
2026-06-21 23:18:41.878,1498.9,1247.5,1473.9,1512.6
2026-06-21 23:18:41.879,1498.1,1248.3,1473.9,1514.2
2026-06-21 23:18:41.880,1501.3,1249.1,1473.1,1511.8
2026-06-21 23:18:41.881,1501.3,1252.3,1479.6,1515
2026-06-21 23:18:41.882,1501.3,1249.9,1487.6,1514.2
2026-06-21 23:18:41.883,1501.3,1249.9,1485.2,1513.4
2026-06-21 23:18:41.884,1501.3,1252.3,1477.1,1511.8
2026-06-21 23:18:41.885,1498.9,1252.3,1468.3,1514.2
2026-06-21 23:18:41.886,1501.3,1248.3,1468.3,1513.4
2026-06-21 23:18:41.887,1502.1,1250.7,1469.9,1512.6
2026-06-21 23:18:41.888,1502.1,1246.7,1473.9,1511.8
2026-06-21 23:18:41.889,1501.3,1246.7,1475.5,1510.2
2026-06-21 23:18:41.890,1502.1,1248.3,1473.9,1512.6
2026-06-21 23:18:41.891,1502.1,1250.7,1475.5,1514.2
2026-06-21 23:18:41.892,1504.5,1250.7,1477.1,1512.6
2026-06-21 23:18:41.893,1502.1,1248.3,1479.6,1514.2
2026-06-21 23:18:41.894,1502.1,1247.5,1480.4,1511.8
2026-06-21 23:18:41.895,1502.9,1245.9,1479.6,1514.2
2026-06-21 23:18:41.896,1501.3,1244.2,1473.9,1514.2
2026-06-21 23:18:41.897,1501.3,1247.5,1465.1,1512.6
2026-06-21 23:18:41.898,1502.1,1248.3,1466.7,1512.6
2026-06-21 23:18:41.899,1502.1,1249.9,1473.9,1510.2
2026-06-21 23:18:41.900,1504.5,1253.1,1473.9,1509.4
2026-06-21 23:18:41.901,1502.9,1249.9,1474.7,1514.2
2026-06-21 23:18:41.902,1501.3,1246.7,1477.9,1511
2026-06-21 23:18:41.903,1503.7,1249.9,1469.9,1511.8
2026-06-21 23:18:41.904,1502.9,1250.7,1473.9,1511
2026-06-21 23:18:41.905,1503.7,1249.9,1472.3,1511
2026-06-21 23:18:41.906,1502.9,1251.5,1474.7,1514.2
2026-06-21 23:18:41.907,1504.5,1249.1,1474.7,1510.2
2026-06-21 23:18:41.908,1502.1,1249.9,1474.7,1511
2026-06-21 23:18:41.909,1503.7,1251.5,1473.9,1511.8
2026-06-21 23:18:41.910,1502.9,1248.3,1474.7,1513.4
2026-06-21 23:18:41.911,1502.1,1248.3,1469.9,1510.2
2026-06-21 23:18:41.912,1501.3,1252.3,1474.7,1509.4
2026-06-21 23:18:41.913,1502.1,1248.3,1477.1,1511
2026-06-21 23:18:41.914,1505.3,1249.1,1476.3,1513.4
2026-06-21 23:18:41.915,1504.5,1251.5,1477.9,1511.8
2026-06-21 23:18:41.916,1503.7,1249.1,1476.3,1511
2026-06-21 23:18:41.917,1502.1,1250.7,1475.5,1511.8
2026-06-21 23:18:41.918,1506.2,1248.3,1465.9,1511.8
2026-06-21 23:18:41.919,1505.3,1248.3,1475.5,1511
2026-06-21 23:18:41.920,1502.9,1249.9,1476.3,1511
2026-06-21 23:18:41.921,1503.7,1250.7,1469.9,1511
2026-06-21 23:18:41.922,1505.3,1252.3,1473.1,1514.2
2026-06-21 23:18:41.923,1501.3,1251.5,1469.1,1512.6
2026-06-21 23:18:41.924,1502.1,1251.5,1467.5,1512.6
2026-06-21 23:18:41.925,1502.1,1247.5,1469.9,1513.4
2026-06-21 23:18:41.926,1502.1,1251.5,1477.1,1514.2
2026-06-21 23:18:41.918,1502.9,1248.3,1477.1,1514.2
2026-06-21 23:18:41.919,1501.3,1245.1,1476.3,1513.4
2026-06-21 23:18:41.920,1501.3,1248.3,1469.1,1511.8
2026-06-21 23:18:41.921,1501.3,1252.3,1469.9,1512.6
2026-06-21 23:18:41.922,1501.3,1249.9,1473.9,1513.4
2026-06-21 23:18:41.923,1501.3,1250.7,1474.7,1514.2
2026-06-21 23:18:41.924,1499.7,1250.7,1471.5,1514.2
2026-06-21 23:18:41.925,1499.7,1249.1,1472.3,1514.2
2026-06-21 23:18:41.926,1500.5,1250.7,1475.5,1513.4
2026-06-21 23:18:41.927,1500.5,1245.9,1471.5,1511.8
2026-06-21 23:18:41.928,1502.9,1248.3,1476.3,1512.6
2026-06-21 23:18:41.929,1502.1,1245.9,1476.3,1513.4
2026-06-21 23:18:41.930,1501.3,1251.5,1477.1,1511
2026-06-21 23:18:41.931,1502.9,1248.3,1476.3,1511.8
2026-06-21 23:18:41.932,1502.1,1250.7,1477.9,1514.2
2026-06-21 23:18:41.933,1501.3,1249.9,1485.2,1514.2
2026-06-21 23:18:41.934,1502.9,1249.1,1487.6,1514.2
2026-06-21 23:18:41.935,1501.3,1248.3,1486,1514.2
2026-06-21 23:18:41.936,1502.1,1247.5,1472.3,1511
2026-06-21 23:18:41.937,1502.1,1247.5,1471.5,1513.4
2026-06-21 23:18:41.938,1502.1,1249.9,1465.1,1511
2026-06-21 23:18:41.939,1501.3,1247.5,1469.9,1514.2
2026-06-21 23:18:41.940,1503.7,1244.2,1472.3,1502.9
2026-06-21 23:18:41.941,1507,1249.1,1474.7,1511.8
2026-06-21 23:18:41.942,1502.1,1249.1,1477.1,1509.4
2026-06-21 23:18:41.943,1502.1,1247.5,1477.9,1511
2026-06-21 23:18:41.944,1502.1,1251.5,1477.9,1510.2
2026-06-21 23:18:41.945,1502.1,1249.9,1477.9,1511
2026-06-21 23:18:41.946,1502.9,1249.9,1477.1,1511
2026-06-21 23:18:41.947,1502.9,1257.1,1473.9,1511
2026-06-21 23:18:41.948,1506.2,1260.4,1469.1,1509.4
2026-06-21 23:18:41.949,1505.3,1251.5,1473.1,1511
2026-06-21 23:18:41.950,1504.5,1253.1,1474.7,1511.8
2026-06-21 23:18:41.951,1502.9,1249.9,1473.9,1513.4
2026-06-21 23:18:41.952,1502.1,1249.1,1473.1,1510.2
2026-06-21 23:18:41.953,1504.5,1246.7,1473.9,1512.6
2026-06-21 23:18:41.954,1502.1,1246.7,1474.7,1511
2026-06-21 23:18:41.955,1503.7,1252.3,1473.9,1512.6
2026-06-21 23:18:41.956,1502.9,1248.3,1471.5,1510.2
2026-06-21 23:18:41.957,1504.5,1243.4,1471.5,1511.8
2026-06-21 23:18:41.958,1502.9,1249.9,1472.3,1511.8
2026-06-21 23:18:41.959,1502.1,1247.5,1476.3,1514.2
2026-06-21 23:18:41.960,1502.1,1248.3,1474.7,1514.2
2026-06-21 23:18:41.961,1504.5,1250.7,1476.3,1511.8
2026-06-21 23:18:41.962,1502.9,1251.5,1474.7,1514.2
2026-06-21 23:18:41.963,1506.2,1251.5,1480.4,1514.2
2026-06-21 23:18:41.964,1506.2,1249.9,1472.3,1513.4
2026-06-21 23:18:41.965,1505.3,1249.1,1467.5,1511.8
2026-06-21 23:18:41.966,1502.1,1250.7,1465.1,1514.2
2026-06-21 23:18:41.967,1502.1,1249.9,1471.5,1514.2
2026-06-21 23:18:41.978,1502.1,1249.9,1477.9,1511.8
2026-06-21 23:18:41.979,1501.3,1246.7,1475.5,1513.4
2026-06-21 23:18:41.980,1498.9,1247.5,1480.4,1512.6
2026-06-21 23:18:41.981,1498.9,1250.7,1472.3,1514.2
2026-06-21 23:18:41.982,1501.3,1251.5,1466.7,1511.8
2026-06-21 23:18:41.983,1499.7,1250.7,1469.1,1511.8
2026-06-21 23:18:41.984,1500.5,1247.5,1471.5,1511.8
2026-06-21 23:18:41.985,1501.3,1249.9,1469.1,1514.2
2026-06-21 23:18:41.986,1501.3,1251.5,1469.9,1510.2
2026-06-21 23:18:41.987,1501.3,1249.1,1472.3,1514.2
2026-06-21 23:18:41.988,1502.9,1247.5,1477.9,1513.4
2026-06-21 23:18:41.989,1501.3,1249.1,1479.6,1514.2
2026-06-21 23:18:41.990,1501.3,1249.9,1477.9,1513.4
2026-06-21 23:18:41.991,1501.3,1248.3,1473.1,1513.4
2026-06-21 23:18:41.992,1503.7,1250.7,1472.3,1511.8
2026-06-21 23:18:41.993,1502.9,1249.1,1473.1,1513.4
2026-06-21 23:18:41.994,1501.3,1249.9,1474.7,1514.2
2026-06-21 23:18:41.995,1501.3,1250.7,1479.6,1513.4
2026-06-21 23:18:41.996,1502.1,1251.5,1477.9,1514.2
2026-06-21 23:18:41.997,1502.1,1249.1,1484.4,1511.8
2026-06-21 23:18:41.998,1502.9,1246.7,1485.2,1514.2
2026-06-21 23:18:41.999,1502.9,1245.9,1477.9,1509.4
2026-06-21 23:18:42.000,1504.5,1248.3,1465.1,1507
2026-06-21 23:18:42.001,1504.5,1249.9,1465.1,1502.9
2026-06-21 23:18:42.002,1506.2,1249.9,1469.1,1507.8
2026-06-21 23:18:42.003,1504.5,1248.3,1473.1,1507.8
2026-06-21 23:18:42.004,1501.3,1245.9,1475.5,1511.8
2026-06-21 23:18:42.005,1505.3,1249.1,1480.4,1511.8
2026-06-21 23:18:42.006,1502.9,1248.3,1480.4,1511.8
2026-06-21 23:18:42.007,1503.7,1249.9,1479.6,1511.8
2026-06-21 23:18:42.008,1503.7,1249.9,1474.7,1511.8
2026-06-21 23:18:42.009,1502.1,1248.3,1477.1,1513.4
2026-06-21 23:18:42.010,1503.7,1257.1,1469.1,1513.4
2026-06-21 23:18:42.011,1503.7,1257.9,1466.7,1511
2026-06-21 23:18:42.012,1504.5,1253.9,1469.9,1513.4
2026-06-21 23:18:42.013,1504.5,1252.3,1471.5,1511
2026-06-21 23:18:42.014,1502.1,1249.1,1473.1,1511
2026-06-21 23:18:42.015,1502.1,1250.7,1477.9,1510.2
2026-06-21 23:18:42.016,1503.7,1251.5,1475.5,1511.8
2026-06-21 23:18:42.017,1502.1,1250.7,1473.1,1510.2
2026-06-21 23:18:42.018,1501.3,1249.1,1475.5,1514.2
2026-06-21 23:18:42.019,1502.1,1249.1,1476.3,1509.4
2026-06-21 23:18:42.020,1502.9,1249.9,1468.3,1511.8
2026-06-21 23:18:42.021,1505.3,1250.7,1467.5,1511.8
2026-06-21 23:18:42.022,1502.1,1248.3,1473.9,1514.2
2026-06-21 23:18:42.023,1503.7,1248.3,1473.9,1511.8
2026-06-21 23:18:42.024,1504.5,1245.9,1475.5,1513.4
2026-06-21 23:18:42.025,1504.5,1249.1,1476.3,1512.6
2026-06-21 23:18:42.026,1503.7,1251.5,1474.7,1512.6
2026-06-21 23:18:42.027,1504.5,1255.5,1476.3,1513.4
2026-06-21 23:18:42.019,1502.1,1252.3,1474.7,1512.6
2026-06-21 23:18:42.020,1499.7,1255.5,1474.7,1514.2
2026-06-21 23:18:42.021,1501.3,1249.9,1472.3,1511
2026-06-21 23:18:42.022,1502.1,1250.7,1473.1,1511.8
2026-06-21 23:18:42.023,1501.3,1251.5,1473.1,1514.2
2026-06-21 23:18:42.024,1501.3,1251.5,1475.5,1514.2
2026-06-21 23:18:42.025,1502.1,1250.7,1473.1,1512.6
2026-06-21 23:18:42.026,1502.1,1249.9,1472.3,1511.8
2026-06-21 23:18:42.027,1501.3,1248.3,1474.7,1513.4
2026-06-21 23:18:42.028,1501.3,1247.5,1473.9,1514.2
2026-06-21 23:18:42.029,1502.9,1245.9,1477.1,1514.2
2026-06-21 23:18:42.030,1501.3,1250.7,1474.7,1515
2026-06-21 23:18:42.031,1501.3,1248.3,1473.1,1514.2
2026-06-21 23:18:42.032,1502.1,1248.3,1471.5,1514.2
2026-06-21 23:18:42.033,1501.3,1248.3,1471.5,1513.4
2026-06-21 23:18:42.034,1506.2,1246.7,1474.7,1513.4
2026-06-21 23:18:42.035,1502.1,1249.9,1473.1,1512.6
2026-06-21 23:18:42.036,1502.9,1248.3,1470.7,1511
2026-06-21 23:18:42.037,1502.1,1246.7,1467.5,1512.6
2026-06-21 23:18:42.038,1504.5,1249.1,1469.1,1511.8
2026-06-21 23:18:42.039,1503.7,1249.1,1469.9,1512.6
2026-06-21 23:18:42.040,1502.9,1249.9,1476.3,1509.4
2026-06-21 23:18:42.041,1504.5,1251.5,1477.9,1507.8
2026-06-21 23:18:42.042,1502.9,1251.5,1479.6,1507.8
2026-06-21 23:18:42.043,1504.5,1251.5,1477.1,1511
2026-06-21 23:18:42.044,1505.3,1247.5,1475.5,1508.6
2026-06-21 23:18:42.045,1502.1,1248.3,1475.5,1511.8
2026-06-21 23:18:42.046,1504.5,1249.1,1474.7,1511.8
2026-06-21 23:18:42.047,1502.1,1251.5,1473.1,1509.4
2026-06-21 23:18:42.048,1504.5,1251.5,1472.3,1513.4
2026-06-21 23:18:42.049,1502.1,1245.9,1473.1,1510.2
2026-06-21 23:18:42.050,1502.1,1248.3,1475.5,1507.8
2026-06-21 23:18:42.051,1502.9,1244.2,1474.7,1511.8
2026-06-21 23:18:42.052,1506.2,1249.1,1477.1,1511.8
2026-06-21 23:18:42.053,1504.5,1250.7,1477.1,1511
2026-06-21 23:18:42.054,1507,1251.5,1479.6,1511
2026-06-21 23:18:42.055,1501.3,1256.3,1477.9,1514.2
2026-06-21 23:18:42.056,1506.2,1251.5,1477.1,1511
2026-06-21 23:18:42.057,1506.2,1251.5,1468.3,1511
2026-06-21 23:18:42.058,1503.7,1249.1,1465.1,1511
2026-06-21 23:18:42.059,1502.9,1250.7,1465.1,1511
2026-06-21 23:18:42.060,1502.9,1251.5,1464.2,1512.6
2026-06-21 23:18:42.061,1502.9,1251.5,1473.9,1511.8
2026-06-21 23:18:42.062,1506.2,1246.7,1473.9,1508.6
2026-06-21 23:18:42.063,1502.1,1250.7,1473.9,1511.8
2026-06-21 23:18:42.064,1502.1,1249.9,1469.9,1514.2
2026-06-21 23:18:42.065,1503.7,1251.5,1472.3,1514.2
2026-06-21 23:18:42.066,1502.9,1251.5,1474.7,1511.8
2026-06-21 23:18:42.067,1503.7,1249.9,1469.9,1511.8
2026-06-21 23:18:42.068,1507,1251.5,1475.5,1512.6
2026-06-21 23:18:42.078,1502.1,1248.3,1474.7,1513.4
2026-06-21 23:18:42.079,1501.3,1249.9,1475.5,1512.6
2026-06-21 23:18:42.080,1498.9,1251.5,1475.5,1511
2026-06-21 23:18:42.081,1498.1,1251.5,1474.7,1512.6
2026-06-21 23:18:42.082,1498.9,1250.7,1469.9,1513.4
2026-06-21 23:18:42.083,1502.1,1249.1,1472.3,1512.6
2026-06-21 23:18:42.084,1502.1,1251.5,1475.5,1513.4
2026-06-21 23:18:42.085,1500.5,1251.5,1473.1,1514.2
2026-06-21 23:18:42.086,1501.3,1248.3,1474.7,1512.6
2026-06-21 23:18:42.087,1501.3,1244.2,1469.1,1513.4
2026-06-21 23:18:42.088,1501.3,1247.5,1473.9,1512.6
2026-06-21 23:18:42.089,1501.3,1247.5,1473.9,1514.2
2026-06-21 23:18:42.090,1501.3,1252.3,1474.7,1514.2
2026-06-21 23:18:42.091,1502.1,1251.5,1475.5,1514.2
2026-06-21 23:18:42.092,1501.3,1249.1,1476.3,1513.4
2026-06-21 23:18:42.093,1502.1,1246.7,1474.7,1514.2
2026-06-21 23:18:42.094,1501.3,1250.7,1476.3,1514.2
2026-06-21 23:18:42.095,1502.9,1247.5,1473.9,1514.2
2026-06-21 23:18:42.096,1504.5,1249.9,1473.9,1514.2
2026-06-21 23:18:42.097,1502.9,1254.7,1478.8,1513.4
2026-06-21 23:18:42.098,1502.1,1251.5,1479.6,1515
2026-06-21 23:18:42.099,1502.1,1250.7,1482,1511.8
2026-06-21 23:18:42.100,1502.9,1252.3,1469.9,1511
2026-06-21 23:18:42.101,1502.1,1249.9,1466.7,1510.2
2026-06-21 23:18:42.102,1502.1,1249.9,1465.1,1507.8
2026-06-21 23:18:42.103,1502.9,1251.5,1475.5,1509.4
2026-06-21 23:18:42.104,1502.9,1251.5,1477.9,1507.8
2026-06-21 23:18:42.105,1502.1,1248.3,1477.9,1511.8
2026-06-21 23:18:42.106,1502.1,1249.1,1477.1,1511
2026-06-21 23:18:42.107,1506.2,1250.7,1472.3,1507
2026-06-21 23:18:42.108,1502.9,1250.7,1474.7,1514.2
2026-06-21 23:18:42.109,1502.9,1249.9,1475.5,1513.4
2026-06-21 23:18:42.110,1502.1,1249.1,1469.9,1507
2026-06-21 23:18:42.111,1504.5,1249.9,1472.3,1511.8
2026-06-21 23:18:42.112,1505.3,1251.5,1473.1,1511.8
2026-06-21 23:18:42.113,1503.7,1251.5,1473.9,1511.8
2026-06-21 23:18:42.114,1502.9,1249.1,1476.3,1513.4
2026-06-21 23:18:42.115,1505.3,1250.7,1477.9,1513.4
2026-06-21 23:18:42.116,1503.7,1251.5,1479.6,1511.8
2026-06-21 23:18:42.117,1502.9,1249.9,1479.6,1511.8
2026-06-21 23:18:42.118,1502.9,1248.3,1475.5,1512.6
2026-06-21 23:18:42.119,1502.1,1249.1,1465.1,1511.8
2026-06-21 23:18:42.120,1503.7,1250.7,1465.1,1511.8
2026-06-21 23:18:42.121,1503.7,1251.5,1465.1,1511.8
2026-06-21 23:18:42.122,1505.3,1251.5,1477.9,1514.2
2026-06-21 23:18:42.123,1502.9,1251.5,1477.9,1514.2
2026-06-21 23:18:42.124,1503.7,1251.5,1477.9,1514.2
2026-06-21 23:18:42.125,1502.1,1248.3,1477.9,1513.4
2026-06-21 23:18:42.126,1502.9,1247.5,1465.1,1513.4
2026-06-21 23:18:42.127,1504.5,1249.9,1465.1,1512.6
2026-06-21 23:18:42.118,1501.3,1253.1,1465.1,1512.6
2026-06-21 23:18:42.119,1499.7,1251.5,1477.9,1514.2
2026-06-21 23:18:42.120,1501.3,1251.5,1475.5,1512.6
2026-06-21 23:18:42.121,1501.3,1248.3,1476.3,1511.8
2026-06-21 23:18:42.122,1498.9,1251.5,1476.3,1511.8
2026-06-21 23:18:42.123,1500.5,1249.1,1469.1,1512.6
2026-06-21 23:18:42.124,1501.3,1251.5,1472.3,1513.4
2026-06-21 23:18:42.125,1501.3,1250.7,1473.1,1514.2
2026-06-21 23:18:42.126,1501.3,1249.9,1473.1,1513.4
2026-06-21 23:18:42.127,1500.5,1248.3,1474.7,1513.4
2026-06-21 23:18:42.128,1502.1,1243.4,1473.9,1513.4
2026-06-21 23:18:42.129,1502.1,1244.2,1477.9,1513.4
2026-06-21 23:18:42.130,1502.9,1247.5,1477.9,1513.4
2026-06-21 23:18:42.131,1501.3,1247.5,1476.3,1512.6
2026-06-21 23:18:42.132,1502.9,1249.9,1479.6,1512.6
2026-06-21 23:18:42.133,1502.1,1248.3,1477.9,1514.2
2026-06-21 23:18:42.134,1501.3,1245.9,1477.1,1514.2
2026-06-21 23:18:42.135,1501.3,1253.9,1471.5,1514.2
2026-06-21 23:18:42.136,1505.3,1255.5,1473.1,1513.4
2026-06-21 23:18:42.137,1501.3,1251.5,1469.9,1513.4
2026-06-21 23:18:42.138,1502.1,1249.9,1469.1,1514.2
2026-06-21 23:18:42.139,1501.3,1247.5,1472.3,1514.2
2026-06-21 23:18:42.140,1504.5,1249.1,1472.3,1510.2
2026-06-21 23:18:42.141,1502.9,1254.7,1471.5,1507
2026-06-21 23:18:42.142,1502.9,1249.9,1472.3,1509.4
2026-06-21 23:18:42.143,1502.1,1250.7,1475.5,1507.8
2026-06-21 23:18:42.144,1502.1,1249.1,1475.5,1509.4
2026-06-21 23:18:42.145,1502.1,1251.5,1472.3,1510.2
2026-06-21 23:18:42.146,1502.1,1251.5,1473.1,1509.4
2026-06-21 23:18:42.147,1505.3,1251.5,1473.9,1514.2
2026-06-21 23:18:42.148,1502.1,1249.9,1473.1,1513.4
2026-06-21 23:18:42.149,1502.1,1251.5,1475.5,1514.2
2026-06-21 23:18:42.150,1502.1,1247.5,1474.7,1512.6
2026-06-21 23:18:42.151,1502.1,1249.1,1476.3,1511.8
2026-06-21 23:18:42.152,1502.9,1248.3,1477.1,1514.2
2026-06-21 23:18:42.153,1501.3,1249.9,1475.5,1512.6
2026-06-21 23:18:42.154,1503.7,1253.9,1473.9,1515
2026-06-21 23:18:42.155,1502.9,1250.7,1473.1,1512.6
2026-06-21 23:18:42.156,1502.9,1254.7,1476.3,1511
2026-06-21 23:18:42.157,1502.1,1248.3,1476.3,1514.2
2026-06-21 23:18:42.158,1503.7,1252.3,1469.1,1511
2026-06-21 23:18:42.159,1502.1,1251.5,1469.1,1514.2
2026-06-21 23:18:42.160,1502.9,1253.9,1469.9,1513.4
2026-06-21 23:18:42.161,1502.1,1251.5,1469.9,1513.4
2026-06-21 23:18:42.162,1503.7,1251.5,1473.1,1511.8
2026-06-21 23:18:42.163,1502.1,1253.1,1471.5,1514.2
2026-06-21 23:18:42.164,1505.3,1249.1,1472.3,1514.2
2026-06-21 23:18:42.165,1502.1,1251.5,1469.9,1510.2
2026-06-21 23:18:42.166,1504.5,1248.3,1469.1,1512.6
2026-06-21 23:18:42.167,1507,1250.7,1473.1,1511
2026-06-21 23:18:42.177,1502.9,1248.3,1472.3,1512.6
2026-06-21 23:18:42.178,1502.1,1249.9,1473.1,1511.8
2026-06-21 23:18:42.179,1499.7,1245.9,1469.1,1513.4
2026-06-21 23:18:42.180,1501.3,1248.3,1472.3,1514.2
2026-06-21 23:18:42.181,1499.7,1248.3,1475.5,1511.8
2026-06-21 23:18:42.182,1501.3,1246.7,1476.3,1514.2
2026-06-21 23:18:42.183,1501.3,1250.7,1477.1,1514.2
2026-06-21 23:18:42.184,1501.3,1253.9,1475.5,1512.6
2026-06-21 23:18:42.185,1500.5,1255.5,1473.9,1511.8
2026-06-21 23:18:42.186,1500.5,1250.7,1477.9,1511.8
2026-06-21 23:18:42.187,1501.3,1250.7,1475.5,1514.2
2026-06-21 23:18:42.188,1502.1,1252.3,1469.1,1513.4
2026-06-21 23:18:42.189,1501.3,1248.3,1469.1,1511.8
2026-06-21 23:18:42.190,1501.3,1249.9,1465.9,1510.2
2026-06-21 23:18:42.191,1501.3,1249.9,1465.1,1509.4
2026-06-21 23:18:42.192,1501.3,1246.7,1469.1,1514.2
2026-06-21 23:18:42.193,1502.9,1249.9,1473.1,1512.6
2026-06-21 23:18:42.194,1502.9,1246.7,1473.1,1513.4
2026-06-21 23:18:42.195,1502.9,1249.9,1475.5,1514.2
2026-06-21 23:18:42.196,1502.1,1249.9,1476.3,1514.2
2026-06-21 23:18:42.197,1502.9,1249.1,1477.1,1511.8
2026-06-21 23:18:42.198,1505.3,1245.9,1476.3,1507.8
2026-06-21 23:18:42.199,1501.3,1249.9,1476.3,1509.4
2026-06-21 23:18:42.200,1502.9,1249.9,1475.5,1510.2
2026-06-21 23:18:42.201,1503.7,1249.9,1475.5,1510.2
2026-06-21 23:18:42.202,1502.1,1249.9,1475.5,1510.2
2026-06-21 23:18:42.203,1502.9,1250.7,1475.5,1510.2
2026-06-21 23:18:42.204,1502.1,1249.1,1474.7,1511.8
2026-06-21 23:18:42.205,1504.5,1249.9,1475.5,1511.8
2026-06-21 23:18:42.206,1503.7,1251.5,1475.5,1514.2
2026-06-21 23:18:42.207,1502.9,1249.9,1473.9,1511.8
2026-06-21 23:18:42.208,1504.5,1251.5,1475.5,1512.6
2026-06-21 23:18:42.209,1502.9,1251.5,1474.7,1514.2
2026-06-21 23:18:42.210,1501.3,1248.3,1477.1,1513.4
2026-06-21 23:18:42.211,1502.9,1248.3,1474.7,1511.8
2026-06-21 23:18:42.212,1505.3,1251.5,1474.7,1514.2
2026-06-21 23:18:42.213,1503.7,1249.1,1472.3,1512.6
2026-06-21 23:18:42.214,1502.1,1250.7,1475.5,1514.2
2026-06-21 23:18:42.215,1502.9,1251.5,1469.9,1514.2
2026-06-21 23:18:42.216,1504.5,1252.3,1473.9,1513.4
2026-06-21 23:18:42.217,1502.9,1248.3,1477.9,1511.8
2026-06-21 23:18:42.218,1504.5,1252.3,1480.4,1514.2
2026-06-21 23:18:42.219,1502.1,1252.3,1482,1514.2
2026-06-21 23:18:42.220,1503.7,1248.3,1471.5,1512.6
2026-06-21 23:18:42.221,1502.9,1248.3,1464.2,1511
2026-06-21 23:18:42.222,1504.5,1253.9,1466.7,1510.2
2026-06-21 23:18:42.223,1502.1,1250.7,1468.3,1512.6
2026-06-21 23:18:42.224,1502.9,1249.9,1473.9,1514.2
2026-06-21 23:18:42.225,1507,1249.1,1469.9,1514.2
2026-06-21 23:18:42.226,1502.1,1250.7,1473.9,1511.8
2026-06-21 23:18:42.219,1501.3,1253.9,1475.5,1513.4
2026-06-21 23:18:42.220,1499.7,1253.1,1471.5,1514.2
2026-06-21 23:18:42.221,1502.1,1257.1,1473.1,1514.2
2026-06-21 23:18:42.222,1501.3,1254.7,1469.9,1514.2
2026-06-21 23:18:42.223,1501.3,1252.3,1473.9,1513.4
2026-06-21 23:18:42.224,1502.9,1251.5,1469.1,1514.2
2026-06-21 23:18:42.225,1501.3,1248.3,1474.7,1513.4
2026-06-21 23:18:42.226,1501.3,1249.9,1473.9,1514.2
2026-06-21 23:18:42.227,1501.3,1248.3,1477.9,1514.2
2026-06-21 23:18:42.228,1502.1,1245.9,1474.7,1514.2
2026-06-21 23:18:42.229,1502.1,1248.3,1469.9,1514.2
2026-06-21 23:18:42.230,1502.1,1248.3,1474.7,1514.2
2026-06-21 23:18:42.231,1501.3,1248.3,1476.3,1512.6
2026-06-21 23:18:42.232,1505.3,1248.3,1473.1,1513.4
2026-06-21 23:18:42.233,1501.3,1247.5,1473.1,1514.2
2026-06-21 23:18:42.234,1506.2,1244.2,1474.7,1514.2
2026-06-21 23:18:42.235,1502.9,1242.6,1476.3,1514.2
2026-06-21 23:18:42.236,1502.9,1240.2,1477.1,1513.4
2026-06-21 23:18:42.237,1501.3,1241,1477.9,1512.6
2026-06-21 23:18:42.238,1501.3,1243.4,1477.9,1513.4
2026-06-21 23:18:42.239,1501.3,1248.3,1477.9,1514.2
2026-06-21 23:18:42.240,1502.1,1261.2,1477.9,1515
2026-06-21 23:18:42.241,1502.1,1260.4,1481.2,1511.8
2026-06-21 23:18:42.242,1502.1,1252.3,1469.1,1511
2026-06-21 23:18:42.243,1502.9,1248.3,1474.7,1512.6
2026-06-21 23:18:42.244,1502.1,1253.9,1477.1,1513.4
2026-06-21 23:18:42.245,1502.9,1249.1,1465.9,1509.4
2026-06-21 23:18:42.246,1501.3,1249.9,1466.7,1502.9
2026-06-21 23:18:42.247,1502.9,1249.9,1469.1,1507.8
2026-06-21 23:18:42.248,1502.9,1250.7,1469.9,1509.4
2026-06-21 23:18:42.249,1505.3,1252.3,1476.3,1511
2026-06-21 23:18:42.250,1502.9,1251.5,1475.5,1512.6
2026-06-21 23:18:42.251,1502.9,1251.5,1473.9,1514.2
2026-06-21 23:18:42.252,1502.1,1249.9,1475.5,1511.8
2026-06-21 23:18:42.253,1504.5,1249.9,1475.5,1511.8
2026-06-21 23:18:42.254,1502.1,1252.3,1476.3,1514.2
