# participant=P001 | sex=male | age=22 | weight_kg=68 | height_cm=175
# exercise=stair_descent | trial_no=1 | label=stair_descent | session=2026-06-21T17:47:57.974Z | tz=Asia/Calcutta
datetime_local,muscle1_filtered_mV,muscle2_filtered_mV,muscle3_filtered_mV,muscle4_filtered_mV
2026-06-21 23:17:57.947,,454.16,,
2026-06-21 23:17:57.948,,572.5,,
2026-06-21 23:17:57.949,,310.55,,
2026-06-21 23:17:57.949,548.58,340.57,,
2026-06-21 23:17:57.950,686.61,192.91,,
2026-06-21 23:17:57.951,369.71,172.04,,
2026-06-21 23:17:57.952,408.18,99.84,,
2026-06-21 23:17:57.953,231.27,57.62,,
2026-06-21 23:17:57.954,206.98,28.12,,
2026-06-21 23:17:57.955,119.5,-19.78,,
2026-06-21 23:17:57.956,67.42,-25.6,,
2026-06-21 23:17:57.957,33.18,-65.5,,
2026-06-21 23:17:57.958,-22.08,-66.09,,
2026-06-21 23:17:57.959,-30.14,-97.53,,
2026-06-21 23:17:57.960,-79.87,-96.21,,
2026-06-21 23:17:57.961,-79.79,-114.72,,
2026-06-21 23:17:57.962,-115,-118.38,,
2026-06-21 23:17:57.963,-114.49,-127.68,,
2026-06-21 23:17:57.964,-139.74,-129.16,,
2026-06-21 23:17:57.965,-139.94,-135.15,,550.3
2026-06-21 23:17:57.966,-153.71,-132.61,,690.56
2026-06-21 23:17:57.967,-155.87,-134.39,,374.18
2026-06-21 23:17:57.968,-159.82,-131.47,,412.46
2026-06-21 23:17:57.969,-160.83,-122.97,,232.29
2026-06-21 23:17:57.970,-161.79,-115.42,,207.45
2026-06-21 23:17:57.971,-156,-105.31,,120.33
2026-06-21 23:17:57.972,-146.83,-95.71,,67.04
2026-06-21 23:17:57.973,-139.4,-79.94,,34.08
2026-06-21 23:17:57.974,-128.88,-67.53,,-22.24
2026-06-21 23:17:57.975,-114.44,-57.35,,-30.56
2026-06-21 23:17:57.976,-96.1,-47.1,,-79.37
2026-06-21 23:17:57.977,-83.31,-37.34,531.02,-79.22
2026-06-21 23:17:57.978,-71.23,-30.26,672.84,-114.93
2026-06-21 23:17:57.979,-56.87,-22.95,365.7,-116.25
2026-06-21 23:17:57.980,-41.52,-19.23,401.74,-140.49
2026-06-21 23:17:57.981,-34.2,-15.96,227.03,-140.9
2026-06-21 23:17:57.982,-30.1,-12.63,201.64,-155.2
2026-06-21 23:17:57.983,-22.43,-15.37,117.94,-157.32
2026-06-21 23:17:57.984,-18.12,-16.46,65.57,-163.43
2026-06-21 23:17:57.985,-17.95,-17.2,33.65,-162.89
2026-06-21 23:17:57.986,-16.21,-17.9,-20.2,-159.82
2026-06-21 23:17:57.987,-16.56,-15.64,-30.14,-156.74
2026-06-21 23:17:57.988,-18.24,-17.34,-77.08,-149.8
2026-06-21 23:17:57.989,-23.08,-17.27,-77.55,-140.16
2026-06-21 23:17:57.990,-23.97,-12.78,-112.94,-126.53
2026-06-21 23:17:57.991,-20.32,-9.63,-113.5,-113.41
2026-06-21 23:17:57.992,-20.06,-4.12,-136.83,-98.85
2026-06-21 23:17:57.993,-17.77,2.01,-137.22,-86.11
2026-06-21 23:17:57.994,-9.56,9.69,-151.66,-69.9
2026-06-21 23:17:57.995,-3.19,12.5,-153.8,-55.9
2026-06-21 23:17:57.996,-0.16,12.61,-158.4,-44.01
2026-06-21 23:17:57.997,6.47,14.8,-158.42,-34.53
2026-06-21 23:17:57.998,14.26,17.38,-156.38,-27.42
2026-06-21 23:17:57.984,17.92,17.68,-151.71,-21.97
2026-06-21 23:17:57.985,20.68,17.02,-145.78,-18.06
2026-06-21 23:17:57.986,21.73,16.43,-136.33,-17.89
2026-06-21 23:17:57.987,21.85,12,-122.86,-19.07
2026-06-21 23:17:57.988,21.84,7.8,-111.1,-19.22
2026-06-21 23:17:57.989,18.56,3.3,-96.23,-20.52
2026-06-21 23:17:57.990,14.96,0.06,-83.17,-21.53
2026-06-21 23:17:57.991,9.31,-1.36,-67.46,-20.39
2026-06-21 23:17:57.992,4.62,-6.21,-56.34,-21.01
2026-06-21 23:17:57.993,0.18,-9.97,-44.87,-19.21
2026-06-21 23:17:57.994,-6.29,-10.88,-34.93,-15.38
2026-06-21 23:17:57.995,-9.45,-11.78,-28.57,-9.68
2026-06-21 23:17:57.996,-11.92,-7.19,-21.72,-4.78
2026-06-21 23:17:57.997,-12.07,-4.4,-18.32,-0.55
2026-06-21 23:17:57.998,-9.17,-0.26,-17.11,8.37
2026-06-21 23:17:57.999,-8.92,3.75,-17.79,15.09
2026-06-21 23:17:58.000,-5.21,6.16,-18.48,16.85
2026-06-21 23:17:58.001,0.01,9.93,-18.11,18.64
2026-06-21 23:17:58.002,3.58,11.25,-21.24,23.26
2026-06-21 23:17:58.003,7.87,12.96,-21.04,23.23
2026-06-21 23:17:58.004,10.1,13.67,-20.05,19.3
2026-06-21 23:17:58.005,13.51,11.89,-18.78,18.17
2026-06-21 23:17:58.006,16.65,9.93,-14.75,14.78
2026-06-21 23:17:58.007,16.49,7.78,-9.82,8.4
2026-06-21 23:17:58.008,13.54,2.8,-4.7,4.19
2026-06-21 23:17:58.009,11.36,-0.29,1.14,-0.58
2026-06-21 23:17:58.010,7.52,-1.88,7.66,-4.2
2026-06-21 23:17:58.011,3.65,-8.01,11.43,-8.05
2026-06-21 23:17:58.012,-0.45,-13.84,16.38,-10.65
2026-06-21 23:17:58.013,-6.98,-13.29,20.5,-11.92
2026-06-21 23:17:58.014,-8.96,-12.24,21.79,-11.62
2026-06-21 23:17:58.015,-10.55,-12.11,21.94,-8.13
2026-06-21 23:17:58.016,-13.42,-9.19,21.14,-5.26
2026-06-21 23:17:58.017,-14.74,-4.92,17.57,-1.38
2026-06-21 23:17:58.018,-14.05,-2.8,13.43,3.55
2026-06-21 23:17:58.019,-11.28,-0.71,10.09,7.33
2026-06-21 23:17:58.020,-8.99,3.69,4.43,12.03
2026-06-21 23:17:58.021,-2.35,7.1,-0.93,15.17
2026-06-21 23:17:58.022,3.49,9.99,-4.23,15
2026-06-21 23:17:58.023,4.71,11.92,-9.6,15.77
2026-06-21 23:17:58.024,8.31,11.56,-11.09,14.37
2026-06-21 23:17:58.025,10.88,10,-10.8,11.69
2026-06-21 23:17:58.026,12.31,8.76,-12.08,8.36
2026-06-21 23:17:58.027,13.01,5.49,-9.09,3.42
2026-06-21 23:17:58.028,12.78,2.03,-4.5,-0.38
2026-06-21 23:17:58.029,10.49,-0.48,-0.59,-6.03
2026-06-21 23:17:58.030,7.68,-0.66,3.9,-11.52
2026-06-21 23:17:58.031,3.17,-5.26,8.17,-13
2026-06-21 23:17:58.032,-0.88,-13.58,12.85,-13.2
2026-06-21 23:17:58.033,-1.65,-12.32,20.38,-14.95
2026-06-21 23:17:58.047,-8.55,-10.47,20.57,-13.9
2026-06-21 23:17:58.048,-13.68,-11.76,12.26,-10.49
2026-06-21 23:17:58.049,-13.79,-7.73,9.34,-7.82
2026-06-21 23:17:58.050,-15.82,-3.69,11.11,-3.24
2026-06-21 23:17:58.051,-12.9,-3.31,6.52,0.96
2026-06-21 23:17:58.052,-10.23,-0.72,1.21,3.59
2026-06-21 23:17:58.053,-8.94,3.53,-2.61,6.82
2026-06-21 23:17:58.054,-3.35,7.23,-6.71,12.14
2026-06-21 23:17:58.055,2.04,7.88,-7.83,15.43
2026-06-21 23:17:58.056,5.37,9.01,-11.65,14.28
2026-06-21 23:17:58.057,8.43,11.06,-15.67,13.38
2026-06-21 23:17:58.058,12.04,10.42,-13.89,10.85
2026-06-21 23:17:58.059,11.3,7.9,-11.99,7.4
2026-06-21 23:17:58.060,12.19,6.38,-11.95,4.33
2026-06-21 23:17:58.061,14.12,4.06,-8.08,0.28
2026-06-21 23:17:58.062,11.23,-2.17,-3.6,-3.85
2026-06-21 23:17:58.063,5.59,-5.34,1.84,-10.57
2026-06-21 23:17:58.064,2.48,-4.62,5.9,-16.14
2026-06-21 23:17:58.065,-0.45,-7.05,7.93,-16.54
2026-06-21 23:17:58.066,-5.91,-10.38,12.67,-14.49
2026-06-21 23:17:58.067,-7.21,-8.7,13.41,-11.99
2026-06-21 23:17:58.068,-8.56,-9.03,13.45,-8.65
2026-06-21 23:17:58.069,-11.52,-9.68,13.04,-6.06
2026-06-21 23:17:58.070,-11.83,-5.4,9.51,-3.14
2026-06-21 23:17:58.071,-10.73,-1.75,8.5,1.77
2026-06-21 23:17:58.072,-9.11,1.26,5.24,5.57
2026-06-21 23:17:58.073,-7.63,5.41,1.15,7.65
2026-06-21 23:17:58.074,-4.12,5.66,-5.08,10.5
2026-06-21 23:17:58.075,-0.15,7.43,-13.65,13.43
2026-06-21 23:17:58.076,2.81,8.76,-12.9,14.23
2026-06-21 23:17:58.077,9.33,8.77,-12.83,12.79
2026-06-21 23:17:58.078,10.83,9.72,-15.21,10.72
2026-06-21 23:17:58.079,11.33,6.21,-12.79,6.75
2026-06-21 23:17:58.080,11.66,3.38,-10.36,3.81
2026-06-21 23:17:58.081,9.73,2.43,-6.56,-1.13
2026-06-21 23:17:58.082,7.38,0.72,-2.66,-6.38
2026-06-21 23:17:58.083,4.78,-3.62,0.38,-7.64
2026-06-21 23:17:58.084,3.11,-5.49,3.73,-10.88
2026-06-21 23:17:58.085,0.87,-6.51,9.1,-13.13
2026-06-21 23:17:58.086,-3.63,-8.49,11.26,-12.13
2026-06-21 23:17:58.087,-9.97,-9.12,12.13,-10.87
2026-06-21 23:17:58.088,-11.72,-8.08,15.57,-10.2
2026-06-21 23:17:58.089,-8.82,-7.19,15.95,-7.55
2026-06-21 23:17:58.090,-8.1,-5.19,12.16,-3.14
2026-06-21 23:17:58.091,-9.78,-1.72,5.62,1.23
2026-06-21 23:17:58.092,-9.26,1.01,-2.09,5.06
2026-06-21 23:17:58.093,-6.61,4.57,-4.38,7.84
2026-06-21 23:17:58.094,-2.35,6.86,-4.85,9.92
2026-06-21 23:17:58.095,-0.51,6.04,-8.28,11.38
2026-06-21 23:17:58.096,6.46,7.47,-9.75,11.69
2026-06-21 23:17:58.082,11.62,8.9,-10.79,10.53
2026-06-21 23:17:58.083,8.6,7.19,-12.3,8.13
2026-06-21 23:17:58.084,8.51,6.68,-11.82,5.69
2026-06-21 23:17:58.085,9.89,4.41,-9.6,2.73
2026-06-21 23:17:58.086,7.96,1.03,-7.82,-1.27
2026-06-21 23:17:58.087,6.31,0,-1.79,-4.41
2026-06-21 23:17:58.088,4.98,-2.31,2.31,-6.04
2026-06-21 23:17:58.089,2.88,-5.65,4.63,-9.88
2026-06-21 23:17:58.090,-1.12,-6.57,8.16,-10.8
2026-06-21 23:17:58.091,-5.31,-9.38,10.59,-9.94
2026-06-21 23:17:58.092,-7.09,-10.94,11.3,-10.61
2026-06-21 23:17:58.093,-9.49,-8.43,12.66,-8.47
2026-06-21 23:17:58.094,-8.89,-6.58,10.95,-5.17
2026-06-21 23:17:58.095,-7.79,-4.45,7.11,-1.87
2026-06-21 23:17:58.096,-10.31,-0.62,5.99,0.66
2026-06-21 23:17:58.097,-7.36,0.21,1.21,4.2
2026-06-21 23:17:58.098,-3.68,3.8,-5.94,7.6
2026-06-21 23:17:58.099,-3.24,7.74,-7.03,8.42
2026-06-21 23:17:58.100,1.31,5.86,-4.98,8.72
2026-06-21 23:17:58.101,3.51,7.31,-5.12,10.32
2026-06-21 23:17:58.102,5.56,8.73,-7.63,10.7
2026-06-21 23:17:58.103,10.1,7.21,-9.75,8.57
2026-06-21 23:17:58.104,10.43,7.86,-9.3,4.28
2026-06-21 23:17:58.105,8.68,5.62,-10.71,1.87
2026-06-21 23:17:58.106,8.42,0.92,-7.7,0.73
2026-06-21 23:17:58.107,6.61,-0.7,-2.99,-3.57
2026-06-21 23:17:58.108,4.61,-2.61,1.51,-8.71
2026-06-21 23:17:58.109,4.45,-5.97,6.59,-8.13
2026-06-21 23:17:58.110,1.05,-7.83,6.75,-9.45
2026-06-21 23:17:58.111,-3.92,-7.82,7.54,-11.4
2026-06-21 23:17:58.112,-6.22,-7.85,11.59,-7.94
2026-06-21 23:17:58.113,-9.87,-7.58,14.43,-7.76
2026-06-21 23:17:58.114,-10.15,-6.39,13.53,-6.73
2026-06-21 23:17:58.115,-10.34,-3.8,8.22,-1.88
2026-06-21 23:17:58.116,-8.98,-1.94,5.81,2.48
2026-06-21 23:17:58.117,-6.25,-0.01,2.62,4.32
2026-06-21 23:17:58.118,-6.47,3.07,-4.65,6.24
2026-06-21 23:17:58.119,-3.09,5.15,-8.67,8.34
2026-06-21 23:17:58.120,0.75,5.17,-10.35,8.78
2026-06-21 23:17:58.121,4.14,7.81,-9.65,10.04
2026-06-21 23:17:58.122,7.96,9.35,-8.98,9.84
2026-06-21 23:17:58.123,8.02,6.89,-9.74,7.08
2026-06-21 23:17:58.124,8.41,6.05,-8.73,5.34
2026-06-21 23:17:58.125,10.18,3.91,-6.83,0.85
2026-06-21 23:17:58.126,9.11,2.46,-2.51,-2.2
2026-06-21 23:17:58.127,6.39,0.2,-1.09,-4.11
2026-06-21 23:17:58.128,2.85,-1.68,0.85,-5.95
2026-06-21 23:17:58.129,3.27,-4.81,3.97,-6.74
2026-06-21 23:17:58.130,1.2,-8.89,0.89,-8.91
2026-06-21 23:17:58.131,-2.03,-8.49,3.11,-9.92
2026-06-21 23:17:58.145,-4.01,-7.79,4.9,-9.24
2026-06-21 23:17:58.146,-7.72,-5.99,3.51,-5.92
2026-06-21 23:17:58.147,-10.06,-5.03,8.75,-4.87
2026-06-21 23:17:58.148,-8.93,-3.38,14.01,-2.04
2026-06-21 23:17:58.149,-8.32,-0.95,15.67,3.74
2026-06-21 23:17:58.150,-6.72,-1.37,12.89,4.06
2026-06-21 23:17:58.151,-4.65,1.8,9.65,6.1
2026-06-21 23:17:58.152,-2.9,5.45,2.56,8.51
2026-06-21 23:17:58.153,0.59,6.96,-9.95,6.1
2026-06-21 23:17:58.154,3.04,7.95,-13.6,6.94
2026-06-21 23:17:58.155,5.47,6.58,-15.51,8.89
2026-06-21 23:17:58.156,6.74,6.4,-15.81,8.27
2026-06-21 23:17:58.157,7.32,5.83,-10.67,5.41
2026-06-21 23:17:58.158,8.48,2.49,-9.39,1.25
2026-06-21 23:17:58.159,7.44,-0.17,-6.66,-0.38
2026-06-21 23:17:58.160,5.5,-1.06,-3.89,-1.84
2026-06-21 23:17:58.161,3.76,-3.05,-1.16,-5.78
2026-06-21 23:17:58.162,0.84,-4.94,3.29,-8.25
2026-06-21 23:17:58.163,-0.65,-5.07,5.16,-9.91
2026-06-21 23:17:58.164,-3.95,-4.62,6.98,-9.27
2026-06-21 23:17:58.165,-5.44,-6.55,9.01,-7.69
2026-06-21 23:17:58.166,-3.34,-8.98,10.21,-8.76
2026-06-21 23:17:58.167,-6.05,-5.25,11.47,-5.56
2026-06-21 23:17:58.168,-8.73,-1.67,8.36,-0.41
2026-06-21 23:17:58.169,-6.06,-0.15,4.7,0.38
2026-06-21 23:17:58.170,-6.36,0.5,3.17,3.28
2026-06-21 23:17:58.171,-4.54,1.59,-0.3,6.44
2026-06-21 23:17:58.172,-1.77,3.35,-1.77,6.41
2026-06-21 23:17:58.173,0.01,3.9,-4.95,7.23
2026-06-21 23:17:58.174,2.99,6.44,-9.5,8.12
2026-06-21 23:17:58.175,3.97,7.94,-9.56,8.98
2026-06-21 23:17:58.176,5.34,5.67,-10.08,7.32
2026-06-21 23:17:58.177,9.25,4.09,-10.07,4.72
2026-06-21 23:17:58.178,10.17,4.32,-5.9,3.41
2026-06-21 23:17:58.179,5.14,1.6,-2.32,-0.43
2026-06-21 23:17:58.180,5.04,-2.13,0.96,-4.14
2026-06-21 23:17:58.181,5.81,-3.73,4.55,-5.27
2026-06-21 23:17:58.182,1.69,-4.53,4.69,-6.45
2026-06-21 23:17:58.183,0.89,-4.73,6.41,-7.97
2026-06-21 23:17:58.184,-2.09,-4.69,9,-7.62
2026-06-21 23:17:58.185,-5.7,-5.19,4.19,-6.9
2026-06-21 23:17:58.186,-5.65,-4.13,1.38,-5.69
2026-06-21 23:17:58.187,-8.89,-4.08,5.83,-3.76
2026-06-21 23:17:58.188,-8.08,-1.26,6.21,-2.39
2026-06-21 23:17:58.189,-5.69,0.38,3.13,1.12
2026-06-21 23:17:58.190,-5.33,-0.47,1.99,2.97
2026-06-21 23:17:58.191,-3.14,3.3,1.2,2.53
2026-06-21 23:17:58.192,-0.6,4.5,-2.37,5.66
2026-06-21 23:17:58.193,0.68,3.9,-7.54,8.11
2026-06-21 23:17:58.194,4.12,5.58,-8.08,7.5
2026-06-21 23:17:58.191,3.89,5.33,-4.63,6.83
2026-06-21 23:17:58.192,2.19,3.01,-5.03,5.57
2026-06-21 23:17:58.193,6.19,0.75,-7.41,4.55
2026-06-21 23:17:58.194,7,2.49,-5.32,2.32
2026-06-21 23:17:58.195,6.1,1.28,-4.54,-1.59
2026-06-21 23:17:58.196,4.89,-1.52,-3.08,-3.78
2026-06-21 23:17:58.197,2.59,0.41,1.38,-4.29
2026-06-21 23:17:58.198,2.49,-2.66,3.73,-6.33
2026-06-21 23:17:58.199,-0.21,-3.08,4.73,-6.53
2026-06-21 23:17:58.200,-2.7,-3.53,7.1,-5.63
2026-06-21 23:17:58.201,-3.75,-7.13,6.84,-6.03
2026-06-21 23:17:58.202,-6.19,-5.16,4.9,-5.13
2026-06-21 23:17:58.203,-7.1,-4.74,5.48,-3.02
2026-06-21 23:17:58.204,-6.86,-2.91,6.13,-1.74
2026-06-21 23:17:58.205,-3.84,-0.12,4.87,-0.19
2026-06-21 23:17:58.206,-1.78,0.26,2.03,3.86
2026-06-21 23:17:58.207,-4.72,2.87,0.63,
2026-06-21 23:17:58.208,-3.56,5.33,-1.05,5.44
2026-06-21 23:17:58.209,1.97,6.11,-3.99,4.29
2026-06-21 23:17:58.210,3.24,4.88,-5.98,5.36
2026-06-21 23:17:58.211,5.58,4.55,-6.8,6.02
2026-06-21 23:17:58.212,6.62,5.6,-5.86,5.95
2026-06-21 23:17:58.213,4.35,3.24,-6.21,4.89
2026-06-21 23:17:58.214,4.01,2.34,-6.86,2.38
2026-06-21 23:17:58.215,6.15,1.81,-3.05,1.83
2026-06-21 23:17:58.216,6.59,-0.25,-0.37,0.48
2026-06-21 23:17:58.217,1.54,-1.57,-0.88,-3.34
2026-06-21 23:17:58.218,-1.33,-5.98,1.19,-5.14
2026-06-21 23:17:58.219,-2.08,-5.49,,-5.06
2026-06-21 23:17:58.220,-4.15,-3.22,4.04,-5.91
2026-06-21 23:17:58.221,-3.42,-6.31,3.93,-5.96
2026-06-21 23:17:58.222,-3.03,-6.02,4.87,-5.88
2026-06-21 23:17:58.223,-4.56,-3.12,6.53,-4.19
2026-06-21 23:17:58.224,-7.42,-2.87,6.23,-3.55
2026-06-21 23:17:58.225,-7.2,-0.66,6.55,-2.98
2026-06-21 23:17:58.226,-4.63,0.34,5.07,1.08
2026-06-21 23:17:58.227,-3.58,0.75,1.4,3.16
2026-06-21 23:17:58.228,0.34,3.47,-0.49,4.15
2026-06-21 23:17:58.229,1.86,4.53,-1.22,4.86
2026-06-21 23:17:58.230,1.95,5.47,-2.54,6.44
2026-06-21 23:17:58.231,5.52,4.28,-6.1,7.63
2026-06-21 23:17:58.232,5.05,4,-8.54,5.37
2026-06-21 23:17:58.233,2.97,5.61,-8.04,4.32
2026-06-21 23:17:58.234,4.75,2.84,-5.88,3.38
2026-06-21 23:17:58.235,4.45,1.27,-3.43,1.04
2026-06-21 23:17:58.236,5.75,0.46,-2.79,-0.66
2026-06-21 23:17:58.237,6.31,-0.92,-1.63,-2.63
2026-06-21 23:17:58.238,1.72,,1.42,-4.43
2026-06-21 23:17:58.239,0.97,-2.41,3.07,-5.22
2026-06-21 23:17:58.240,-1.63,-5.85,3.01,-6.61
2026-06-21 23:17:58.247,-7.07,-6.1,4.39,-6.5
2026-06-21 23:17:58.248,-6.43,-4.85,6.17,-5.58
2026-06-21 23:17:58.249,-6.09,-5.43,5.9,-5.64
2026-06-21 23:17:58.250,-6.12,-4.68,3.88,-3.69
2026-06-21 23:17:58.251,-4.77,-1.43,4.12,-0.95
2026-06-21 23:17:58.252,-4.75,-0.25,5.12,0.34
2026-06-21 23:17:58.253,-3.1,-0.47,3.63,2.56
2026-06-21 23:17:58.254,-1.21,0.57,0.67,4.97
2026-06-21 23:17:58.255,0.33,2.44,-2.24,5.08
2026-06-21 23:17:58.256,2.82,4.07,-5,5.77
2026-06-21 23:17:58.257,3.27,4.63,-5.45,7.33
2026-06-21 23:17:58.258,4.57,3.89,-5.96,6.62
2026-06-21 23:17:58.259,5.43,3.16,-6.55,4.47
2026-06-21 23:17:58.260,5.31,2.98,-4.62,2
2026-06-21 23:17:58.261,5.65,3.04,-5.46,1.87
2026-06-21 23:17:58.262,4.58,1.67,-5.97,0.86
2026-06-21 23:17:58.263,4.23,-0.39,-1.64,-0.98
2026-06-21 23:17:58.264,0.42,-1.64,1.46,-2.39
2026-06-21 23:17:58.265,-1.16,0.59,2.2,-6.35
2026-06-21 23:17:58.266,-0.25,-2.18,5.47,-7.06
2026-06-21 23:17:58.267,-2.57,-6.53,5.1,-7.9
2026-06-21 23:17:58.268,-2.88,-3.61,5.83,-5.38
2026-06-21 23:17:58.269,-3.85,-5.12,7.01,-2.78
2026-06-21 23:17:58.270,-6.77,-4.67,4.7,-4.43
2026-06-21 23:17:58.271,-5.6,-0.48,3.93,-2.21
2026-06-21 23:17:58.272,-3.98,-0.94,2.94,-0.65
2026-06-21 23:17:58.273,-3.16,1.68,0.93,2.26
2026-06-21 23:17:58.274,-2.08,2.68,0.19,5.03
2026-06-21 23:17:58.275,0.21,0.71,-0.29,4.1
2026-06-21 23:17:58.276,0.97,3.54,-1.31,4.69
2026-06-21 23:17:58.277,1.89,4.7,-4.08,4.56
2026-06-21 23:17:58.278,5.77,3.4,-8.44,4.97
2026-06-21 23:17:58.279,6.32,2.08,-10.32,5.16
2026-06-21 23:17:58.280,5.14,3.54,-7.02,3.44
2026-06-21 23:17:58.281,4.08,1.66,-2.81,2.74
2026-06-21 23:17:58.282,3.36,-1.32,-3,0.04
2026-06-21 23:17:58.283,2.12,-1.13,-0.04,-1.48
2026-06-21 23:17:58.284,0.85,-2.07,1.76,-2.33
2026-06-21 23:17:58.285,0.32,-0.94,0.78,-4.04
2026-06-21 23:17:58.286,-0.66,-1.78,3.3,-4.76
2026-06-21 23:17:58.287,-3.52,-3.38,4.52,-4.93
2026-06-21 23:17:58.288,-5.48,-3.41,3.53,-4.31
2026-06-21 23:17:58.289,-6.14,-3.48,4.99,-3.89
2026-06-21 23:17:58.290,-5.55,-1.69,4.66,-2.82
2026-06-21 23:17:58.291,-3,-1.56,4.45,-1.37
2026-06-21 23:17:58.292,-1.26,-0.11,2.98,-1.3
2026-06-21 23:17:58.293,-2.37,3.46,-0.04,0.08
2026-06-21 23:17:58.294,-2.76,1.76,0.49,3.05
2026-06-21 23:17:58.295,-0.19,,-2.13,3.93
2026-06-21 23:17:58.296,4.6,-0.37,-5.59,4.53
2026-06-21 23:17:58.283,,2.29,-5.05,4.52
2026-06-21 23:17:58.286,6.62,2.43,-4.13,4.94
2026-06-21 23:17:58.287,3.19,0.83,-1.89,4.96
2026-06-21 23:17:58.288,2.65,2.05,3.51,2.8
2026-06-21 23:17:58.289,3.42,3.19,2.43,1.05
2026-06-21 23:17:58.290,2.69,1.94,-2.18,-0.29
2026-06-21 23:17:58.291,2.74,1.12,-2.64,-2.38
2026-06-21 23:17:58.292,1.74,0.33,-4.75,-3.87
2026-06-21 23:17:58.293,0.67,-2.31,-4.41,-4.32
2026-06-21 23:17:58.294,-0.15,-0.77,1.06,-4.53
2026-06-21 23:17:58.295,-1.18,0.19,3.09,-3.94
2026-06-21 23:17:58.296,-3.48,-4.07,3.27,-4.16
2026-06-21 23:17:58.297,-4.15,-4.57,5.53,-3.44
2026-06-21 23:17:58.298,-3.25,-3.09,4.33,-2.03
2026-06-21 23:17:58.299,-5.24,-2.15,1.22,-0.12
2026-06-21 23:17:58.300,-4.36,-2.53,1.55,0.29
2026-06-21 23:17:58.301,-1.73,-1.01,1.54,1.89
2026-06-21 23:17:58.302,-0.82,1.02,-0.28,
2026-06-21 23:17:58.303,0.9,1.1,-0.97,4.11
2026-06-21 23:17:58.304,-0.03,3.89,-1.86,2.13
2026-06-21 23:17:58.305,0.27,3.93,-1.78,2.2
2026-06-21 23:17:58.306,2.8,2.9,-1.34,3.87
2026-06-21 23:17:58.307,3.89,1.5,-2.44,4.86
2026-06-21 23:17:58.308,3.75,1.3,-3.79,4.09
2026-06-21 23:17:58.309,2.02,3.53,-5.16,1.58
2026-06-21 23:17:58.310,3.28,2.1,-6.39,1.05
2026-06-21 23:17:58.311,2.29,1,-3.14,-0.63
2026-06-21 23:17:58.312,1.52,-0.47,6.31,-1.92
2026-06-21 23:17:58.313,0.49,-2.43,7.22,-1.23
2026-06-21 23:17:58.314,-0.32,-1.99,,-3.48
2026-06-21 23:17:58.315,-0.63,-3.12,3.59,-3.67
2026-06-21 23:17:58.316,-3.94,-2.26,4.15,-3.85
2026-06-21 23:17:58.317,-2.17,-3.79,0.89,-4.32
2026-06-21 23:17:58.318,-2.93,-1.66,0.17,-1.81
2026-06-21 23:17:58.319,-2.79,-0.08,3.47,-1.12
2026-06-21 23:17:58.320,-0.88,-3.22,2.06,-1.01
2026-06-21 23:17:58.321,-3.9,-2.11,2.42,0.63
2026-06-21 23:17:58.322,-1.45,-0.72,2.14,-0.27
2026-06-21 23:17:58.323,-0.6,0.53,-0.13,0.85
2026-06-21 23:17:58.324,-1.33,3.02,-0.62,3.55
2026-06-21 23:17:58.325,2.22,3.45,-2.6,3.01
2026-06-21 23:17:58.326,1.63,1.91,-2.61,4.64
2026-06-21 23:17:58.327,1.62,3.76,-4.94,4.85
2026-06-21 23:17:58.328,4.2,4.42,-8.08,3.59
2026-06-21 23:17:58.329,5.53,1,-3.92,2.01
2026-06-21 23:17:58.330,3.58,3.27,-0.37,-0.2
2026-06-21 23:17:58.331,1.89,3.11,-2.2,0.17
2026-06-21 23:17:58.332,2.23,-0.37,-1.76,-1.24
2026-06-21 23:17:58.333,1.27,1.09,0,-2.92
2026-06-21 23:17:58.334,0.16,-0.92,2.92,-3.23
2026-06-21 23:17:58.335,-1.27,-4.12,5.17,-4.24
2026-06-21 23:17:58.348,-0.94,-6.48,3.72,-3.74
2026-06-21 23:17:58.349,-2.57,-4.25,3.84,-3.38
2026-06-21 23:17:58.350,-5.93,-3.19,5.53,-3.5
2026-06-21 23:17:58.351,-5.05,-4.12,4.98,-1.9
2026-06-21 23:17:58.352,-3.42,-1.17,2.74,-0.66
2026-06-21 23:17:58.353,-3.07,-0.45,0.68,0.42
2026-06-21 23:17:58.354,-1.19,-0.83,-1.2,1.66
2026-06-21 23:17:58.355,0.43,0.06,-3.66,1.73
2026-06-21 23:17:58.356,0.17,2.5,-3,3.49
2026-06-21 23:17:58.357,0.9,3.27,-0.7,4.42
2026-06-21 23:17:58.358,2.13,3.38,-1.88,4.12
2026-06-21 23:17:58.359,3.09,4.11,-2.83,4.26
2026-06-21 23:17:58.360,3.18,1.16,-2.69,3.23
2026-06-21 23:17:58.361,3.21,1.11,-1.68,2.26
2026-06-21 23:17:58.362,2.84,4.1,-2.71,1.27
2026-06-21 23:17:58.363,2.75,1.27,-3.87,-0.35
2026-06-21 23:17:58.364,2.01,-1.24,-1.4,-0.86
2026-06-21 23:17:58.365,0.45,-1.3,0.02,-2.06
2026-06-21 23:17:58.366,0.53,-0.78,0.46,-3.94
2026-06-21 23:17:58.367,-1.45,-0.94,2.03,-4.46
2026-06-21 23:17:58.368,-2.34,-3.57,3.34,-5.12
2026-06-21 23:17:58.369,-1.96,-1.86,3.87,-3.96
2026-06-21 23:17:58.370,-3.81,-2.19,4.18,-2.62
2026-06-21 23:17:58.371,-2.53,-3.31,3.54,-2.46
2026-06-21 23:17:58.372,-1.09,-1.06,1.92,-1.44
2026-06-21 23:17:58.373,-3.29,-0.49,2.12,0.24
2026-06-21 23:17:58.374,-3.46,0.34,2.48,2.48
2026-06-21 23:17:58.375,-2.45,0.59,0.14,2.6
2026-06-21 23:17:58.376,0.59,1.06,-0.34,1.02
2026-06-21 23:17:58.377,2.6,2.02,-2.52,2.55
2026-06-21 23:17:58.378,2.23,0.89,-5.85,4.59
2026-06-21 23:17:58.379,1.63,2.12,-4.83,4.54
2026-06-21 23:17:58.380,3.16,2.48,-4.11,3.62
2026-06-21 23:17:58.381,5.44,2.43,-4.1,2.24
2026-06-21 23:17:58.382,1.17,1.24,-2.67,0.84
2026-06-21 23:17:58.383,1.07,-0.19,-2.39,-0.57
2026-06-21 23:17:58.384,2.89,-0.55,-0.02,-1.4
2026-06-21 23:17:58.385,-0.25,-0.61,2.14,-2.42
2026-06-21 23:17:58.386,0.46,0.39,2.22,-2.28
2026-06-21 23:17:58.387,0.09,-2.53,1.66,-2.66
2026-06-21 23:17:58.388,-3.01,-2.34,2.32,-3.65
2026-06-21 23:17:58.389,-3.85,-2.34,4.28,-2.4
2026-06-21 23:17:58.390,-4.2,-1.48,4.35,-2.29
2026-06-21 23:17:58.391,-1.73,-1.16,3.31,-3.39
2026-06-21 23:17:58.392,-2.1,-2.38,1.71,-1.51
2026-06-21 23:17:58.393,-3.01,0.38,2.05,0.8
2026-06-21 23:17:58.394,0.3,0.58,0.3,1.21
2026-06-21 23:17:58.395,0.43,1.04,-2.25,1.64
2026-06-21 23:17:58.396,0.3,2.3,-2.11,2.64
2026-06-21 23:17:58.397,0.92,1.31,-2.74,3.25
2026-06-21 23:17:58.384,-0.02,1.9,-1.29,3.07
2026-06-21 23:17:58.385,1.17,1.2,-0.19,2.96
2026-06-21 23:17:58.386,2.59,2.48,-3.3,2.3
2026-06-21 23:17:58.387,2.87,3.85,-4.21,1.7
2026-06-21 23:17:58.388,2.38,-0.18,-1.69,0.65
2026-06-21 23:17:58.389,1.72,-0.54,-2.35,-0.03
2026-06-21 23:17:58.390,1.98,-1.04,-3.89,-1.24
2026-06-21 23:17:58.391,0.24,-2.11,0.31,-2.4
2026-06-21 23:17:58.392,-0.38,-0.73,1.74,-2.57
2026-06-21 23:17:58.393,-0.1,-1.4,1.49,-3.31
2026-06-21 23:17:58.394,-1.87,-2.71,2.83,-2.72
2026-06-21 23:17:58.395,-2.38,-3.35,2.45,-2.43
2026-06-21 23:17:58.396,-1.97,-1.37,4.01,-1.63
2026-06-21 23:17:58.397,-2.15,0.41,5.25,-1.31
2026-06-21 23:17:58.398,-2.66,-1.06,3.37,-0.55
2026-06-21 23:17:58.399,-1.64,-0.31,2.27,2.18
2026-06-21 23:17:58.400,-1.75,-0.88,1.11,2.08
2026-06-21 23:17:58.401,-1.08,0.46,-1.25,0.22
2026-06-21 23:17:58.402,0.43,1.25,-2.02,0.94
2026-06-21 23:17:58.403,1.16,1.82,-1.45,3.14
2026-06-21 23:17:58.404,1.82,4.59,-2.29,2.71
2026-06-21 23:17:58.405,2.01,1.18,-3.1,0.98
2026-06-21 23:17:58.406,3.5,2.23,-2.38,1
2026-06-21 23:17:58.407,0.89,3.23,-3.64,1.6
2026-06-21 23:17:58.408,2.06,1.83,-4.53,1.02
2026-06-21 23:17:58.409,4.43,2.52,-2.22,-0.11
2026-06-21 23:17:58.410,1.82,-1.71,0.36,-0.61
2026-06-21 23:17:58.411,2.14,-2.61,0.67,-1.95
2026-06-21 23:17:58.412,0.47,-2.29,3.11,-1.54
2026-06-21 23:17:58.413,-2.09,-2.46,2.53,-1.63
2026-06-21 23:17:58.414,-2.51,-2.27,1.44,-4.02
2026-06-21 23:17:58.415,-2.71,-3.44,2.15,-1.57
2026-06-21 23:17:58.416,-3.09,-1.13,2.5,-1.1
2026-06-21 23:17:58.417,-3.5,-3.32,2.48,-2.73
2026-06-21 23:17:58.418,-0.71,-2.86,1.35,-0.62
2026-06-21 23:17:58.419,-2.28,0.45,1.08,1.25
2026-06-21 23:17:58.420,-2.48,1.19,-0.02,0.89
2026-06-21 23:17:58.421,1.03,1.65,-0.11,1.96
2026-06-21 23:17:58.422,0.17,0.68,0.05,2.71
2026-06-21 23:17:58.423,0.91,2.3,-0.67,1.92
2026-06-21 23:17:58.424,1.69,3.24,-2.32,3.08
2026-06-21 23:17:58.425,1.36,2.63,-1.6,3.05
2026-06-21 23:17:58.426,1.77,1.81,-1.84,2.69
2026-06-21 23:17:58.427,2.66,2.2,-3.42,0.78
2026-06-21 23:17:58.428,2.48,3.15,-3.09,-0.82
2026-06-21 23:17:58.429,1.53,-0.84,-2.31,-0.23
2026-06-21 23:17:58.430,2.41,0.01,-0.09,-2.46
2026-06-21 23:17:58.431,2.9,0.13,1.6,-3.18
2026-06-21 23:17:58.432,0.32,-3.61,0.54,-1.58
2026-06-21 23:17:58.433,-0.56,-2.55,3.46,-2.26
2026-06-21 23:17:58.448,0.77,-2.33,2.5,-2.18
2026-06-21 23:17:58.449,-2.24,-1.97,-0.49,-2.06
2026-06-21 23:17:58.450,-4.32,-1.38,2.59,-1.79
2026-06-21 23:17:58.451,-3.34,-0.6,3.23,-0.11
2026-06-21 23:17:58.452,-3.15,-1.57,2.5,-0.76
2026-06-21 23:17:58.453,-2.73,-2.65,1.29,-0.83
2026-06-21 23:17:58.454,-1.43,0.21,0.73,1.39
2026-06-21 23:17:58.455,-0.75,1.63,-0.26,2.15
2026-06-21 23:17:58.456,-0.26,1.18,-1.28,1.83
2026-06-21 23:17:58.457,0.6,0.75,-1.61,2.77
2026-06-21 23:17:58.458,1.43,1.63,-2.95,3.2
2026-06-21 23:17:58.459,1.6,1.58,-3.85,2.47
2026-06-21 23:17:58.460,0.81,2.21,-2.86,1.4
2026-06-21 23:17:58.461,2.73,3.39,-2.08,2.19
2026-06-21 23:17:58.462,3.24,1.15,-1.56,1.3
2026-06-21 23:17:58.463,2.19,0.16,-0.3,0.03
2026-06-21 23:17:58.464,1.1,0.37,-1.86,0.27
2026-06-21 23:17:58.465,-0.08,0.06,-1.18,-1.29
2026-06-21 23:17:58.466,0.51,-1.88,0.52,-1.85
2026-06-21 23:17:58.467,-0.48,-2.21,0.87,-3.69
2026-06-21 23:17:58.468,0.42,-1.99,3.69,-4.08
2026-06-21 23:17:58.469,0.99,-2.55,2.72,-3.6
2026-06-21 23:17:58.470,-2.35,-0.2,0.69,-4.28
2026-06-21 23:17:58.471,-1.38,-1.08,3.04,-1.61
2026-06-21 23:17:58.472,-1.56,-1.36,3.66,1.24
2026-06-21 23:17:58.473,-4.14,0.85,2.99,0.92
2026-06-21 23:17:58.474,-1.65,0.07,2.57,2.13
2026-06-21 23:17:58.475,-0.01,0.15,0.36,2.43
2026-06-21 23:17:58.476,-1.44,1.14,-1.14,0.29
2026-06-21 23:17:58.477,-0.27,1.93,-1.96,0.17
2026-06-21 23:17:58.478,2.48,-0.12,-3.01,2.57
2026-06-21 23:17:58.479,2.42,-0.53,-3.57,2.39
2026-06-21 23:17:58.480,2.04,2.65,-1.72,1.91
2026-06-21 23:17:58.481,2,2.66,-1.25,2.03
2026-06-21 23:17:58.482,1.78,0.22,-1.83,0.74
2026-06-21 23:17:58.483,0.79,-1.15,-0.58,-0.33
2026-06-21 23:17:58.484,0.19,-1.66,-2.19,-0.57
2026-06-21 23:17:58.485,0.56,-0.44,-2.76,-0.97
2026-06-21 23:17:58.486,-1.82,0.74,0.1,-2.4
2026-06-21 23:17:58.487,-2.18,0.31,0.86,-1.66
2026-06-21 23:17:58.488,-1.4,-0.95,3.16,-2.15
2026-06-21 23:17:58.489,-2.43,-2.6,5.13,-3
2026-06-21 23:17:58.490,-1.84,-1.79,2.2,-1.92
2026-06-21 23:17:58.491,-1.5,-0.15,2.37,-0.48
2026-06-21 23:17:58.492,-0.58,-0.49,1.61,-1.07
2026-06-21 23:17:58.493,2.8,0.64,0.58,-0.78
2026-06-21 23:17:58.494,2.97,1.66,0.27,1.7
2026-06-21 23:17:58.495,-0.25,1.02,-1.85,1.83
2026-06-21 23:17:58.496,0.44,1.24,-1.17,1.26
2026-06-21 23:17:58.497,2.8,-1.22,1.23,2.24
2026-06-21 23:17:58.483,0.99,-0.47,0.04,1.8
2026-06-21 23:17:58.484,-0.7,2.49,1.14,0.38
2026-06-21 23:17:58.485,-0.01,2.46,0.25,2.52
2026-06-21 23:17:58.486,0.84,1.06,-3.74,0.87
2026-06-21 23:17:58.487,0.57,-0.27,-0.65,-0.4
2026-06-21 23:17:58.488,0.75,0.05,0.47,1.29
2026-06-21 23:17:58.489,-0.43,1.45,-0.61,0.06
2026-06-21 23:17:58.490,-0.92,-1.38,-2.17,-0.76
2026-06-21 23:17:58.491,0.77,-3.77,-3.11,-1.2
2026-06-21 23:17:58.492,-1.7,-2.07,-1.5,-1.13
2026-06-21 23:17:58.493,0.98,1.1,-3.48,-1.98
2026-06-21 23:17:58.494,1.36,0.69,0.74,1.04
2026-06-21 23:17:58.495,-2.31,-2.13,2.7,-3.02
2026-06-21 23:17:58.496,-0.23,-0.79,-1.01,-10.18
2026-06-21 23:17:58.497,-3.39,-0.18,2.09,-4.4
2026-06-21 23:17:58.498,-4.56,-0.13,1.38,3.5
2026-06-21 23:17:58.499,-0.34,-1.19,3.48,11.57
2026-06-21 23:17:58.500,0.4,-1,3.18,10.82
2026-06-21 23:17:58.501,1.68,2.66,0.91,2.79
2026-06-21 23:17:58.502,1.25,2.45,3.16,1.03
2026-06-21 23:17:58.503,2.09,-0.09,0.04,-6.54
2026-06-21 23:17:58.504,3.48,0.66,-3.54,-12.06
2026-06-21 23:17:58.505,2.1,1.23,-4.42,-6.85
2026-06-21 23:17:58.506,1.08,2.6,-2.59,2.28
2026-06-21 23:17:58.507,-0.28,0.24,-0.17,6.97
2026-06-21 23:17:58.508,1.42,-0.44,-0.92,6.91
2026-06-21 23:17:58.509,2.61,1.47,0.09,5.16
2026-06-21 23:17:58.510,-1.35,0.2,1.75,1.23
2026-06-21 23:17:58.511,-3.48,-0.78,2.4,-0.82
2026-06-21 23:17:58.512,-2.15,-2.47,-0.66,-5.66
2026-06-21 23:17:58.513,-3,-1.5,-2.52,-6.65
2026-06-21 23:17:58.514,-2.66,-0.83,0.3,-0.87
2026-06-21 23:17:58.515,-1.27,-1.65,0.56,-0.06
2026-06-21 23:17:58.516,-0.12,-0.84,1.46,-1.87
2026-06-21 23:17:58.517,-0.53,-1.69,0.28,0.71
2026-06-21 23:17:58.518,-2.63,-0.79,-0.48,1.02
2026-06-21 23:17:58.519,-2.27,0.59,1.15,1.13
2026-06-21 23:17:58.520,-0.62,1.23,0.95,2.2
2026-06-21 23:17:58.521,-1.35,1.12,0.55,1.14
2026-06-21 23:17:58.522,1.1,1.56,-0.14,1.66
2026-06-21 23:17:58.523,3.38,1.37,-1.3,1.92
2026-06-21 23:17:58.524,1.12,-0.3,-1.54,1.56
2026-06-21 23:17:58.525,0.83,1.53,-1.06,1.16
2026-06-21 23:17:58.526,2.21,-0.01,-2.3,0.19
2026-06-21 23:17:58.527,4.41,-0.73,-1.9,-0.06
2026-06-21 23:17:58.528,2.83,-0.36,0.84,0.12
2026-06-21 23:17:58.529,1.32,1.61,0.5,-0.55
2026-06-21 23:17:58.530,1.67,3.36,0.63,-1.52
2026-06-21 23:17:58.531,1.93,-2.07,1.89,-1.42
2026-06-21 23:17:58.532,0.78,-3.23,2.8,-2.12
2026-06-21 23:17:58.547,-4.17,-2.04,4.71,-1.5
2026-06-21 23:17:58.548,-4.37,-3.63,2.66,-0.66
2026-06-21 23:17:58.549,-1.32,-0.68,1.64,-0.9
2026-06-21 23:17:58.550,-2.73,0.12,1.63,-0.99
2026-06-21 23:17:58.551,-3.36,-1.2,2.02,-0.72
2026-06-21 23:17:58.552,-2.62,1.07,1.53,-0.1
2026-06-21 23:17:58.553,-2.52,-0.12,-3.99,1.06
2026-06-21 23:17:58.554,-1.58,-0.15,-6.06,0.83
2026-06-21 23:17:58.555,-1.52,3.53,-6.67,0.88
2026-06-21 23:17:58.556,0.11,1.96,-6.68,1.52
2026-06-21 23:17:58.557,2.75,1.12,-2.81,1.61
2026-06-21 23:17:58.558,1.21,2.54,-1.9,1.85
2026-06-21 23:17:58.559,0.25,2.41,-1.47,0.79
2026-06-21 23:17:58.560,2.5,1.97,4.44,1.01
2026-06-21 23:17:58.561,1.89,-0.07,3.66,1.16
2026-06-21 23:17:58.562,1.13,-1.17,-2.92,1.46
2026-06-21 23:17:58.563,1.17,-2.31,-0.78,0.05
2026-06-21 23:17:58.564,1.06,0.69,3.74,-3.16
2026-06-21 23:17:58.565,1.84,-0.18,3.51,-2.76
2026-06-21 23:17:58.566,-0.77,-2.76,2.74,-1.53
2026-06-21 23:17:58.567,-1.61,-0.05,2.7,-1.59
2026-06-21 23:17:58.568,0.17,-0.77,2.54,-0.34
2026-06-21 23:17:58.569,-1.71,-0.6,2.31,-2.43
2026-06-21 23:17:58.570,-2.32,-0.29,0.33,-2.55
2026-06-21 23:17:58.571,-0.57,-2.33,-2,0.18
2026-06-21 23:17:58.572,-0.26,-2.65,1.24,0.19
2026-06-21 23:17:58.573,-1.39,-0.81,3.72,0.51
2026-06-21 23:17:58.574,-1.95,-0.95,-0.48,2.13
2026-06-21 23:17:58.575,1.81,-0.27,0.95,1.09
2026-06-21 23:17:58.576,0.05,2.34,1.68,0.88
2026-06-21 23:17:58.577,-3.69,2.84,-5.58,1.76
2026-06-21 23:17:58.578,2.18,0.83,-3.44,0.82
2026-06-21 23:17:58.579,2.22,0.59,-2.41,1.16
2026-06-21 23:17:58.580,-1.49,1.52,-6.36,1.01
2026-06-21 23:17:58.581,1.36,1.06,-3.86,0.24
2026-06-21 23:17:58.582,0.46,0.55,-1.65,-0.65
2026-06-21 23:17:58.583,-2.06,0.56,0.33,0.13
2026-06-21 23:17:58.584,2.35,0.27,2.16,-1.61
2026-06-21 23:17:58.585,1.34,1.26,1.4,-1.14
2026-06-21 23:17:58.586,-2.9,-0.9,0.29,-0.68
2026-06-21 23:17:58.587,1.83,-2.95,-0.46,-2.91
2026-06-21 23:17:58.588,3.95,-0.19,0.59,-0.42
2026-06-21 23:17:58.589,0.66,-0.37,1.51,0.19
2026-06-21 23:17:58.590,-0.67,1.16,2.14,-0.99
2026-06-21 23:17:58.591,-0.23,1.84,1.64,-0.32
2026-06-21 23:17:58.592,0.42,-1.33,-0.79,0.17
2026-06-21 23:17:58.593,1.86,-0.88,0.37,1.15
2026-06-21 23:17:58.594,2.88,0.79,0.67,0.22
2026-06-21 23:17:58.595,1.71,0.47,0.54,0.34
2026-06-21 23:17:58.596,1.72,-0.41,0.62,1.33
2026-06-21 23:17:58.581,,-3.58,0.06,0.8
2026-06-21 23:17:58.581,-1.13,-1.7,0.29,1.22
2026-06-21 23:17:58.582,-7.14,1.13,-1.56,0.69
2026-06-21 23:17:58.583,-4.16,-0.24,-1.8,0.8
2026-06-21 23:17:58.584,0.67,0.72,-0.04,0.16
2026-06-21 23:17:58.585,-0.67,1.47,-0.45,0.25
2026-06-21 23:17:58.586,-1.09,0.11,-0.88,-0.5
2026-06-21 23:17:58.587,0.4,0.01,0.09,-1.86
2026-06-21 23:17:58.588,2.2,-0.6,1.86,-0.83
2026-06-21 23:17:58.589,2.78,-1.27,1.18,-0.66
2026-06-21 23:17:58.590,1.26,-0.19,-0.27,-1.41
2026-06-21 23:17:58.591,-1.23,0.03,0.34,-0.63
2026-06-21 23:17:58.592,-1.98,1.6,0.89,0.02
2026-06-21 23:17:58.593,-0.2,2.42,-0.03,-0.15
2026-06-21 23:17:58.594,-0.22,-0.24,-1.2,0.19
2026-06-21 23:17:58.595,-1.24,-0.29,0.2,-1.96
2026-06-21 23:17:58.596,-0.47,1.18,-0.17,0.56
2026-06-21 23:17:58.597,-0.61,0.3,-1.12,
2026-06-21 23:17:58.598,2.19,-0.57,-0.99,1.65
2026-06-21 23:17:58.599,3.29,-0.16,1.74,-1.14
2026-06-21 23:17:58.600,0.94,1.38,5.21,1.47
2026-06-21 23:17:58.601,3.43,1.4,0.75,2.44
2026-06-21 23:17:58.602,3.19,1.39,-1.95,1.31
2026-06-21 23:17:58.603,-0.48,0.99,-0.74,1.44
2026-06-21 23:17:58.604,0.45,-0.67,-1,-0.19
2026-06-21 23:17:58.605,-0.12,-1.16,0.05,0.4
2026-06-21 23:17:58.606,-0.03,0.14,-0.55,1.01
2026-06-21 23:17:58.607,0.7,-1.03,-1.23,-0.51
2026-06-21 23:17:58.608,-1.79,-3.96,0.81,-1.1
2026-06-21 23:17:58.609,-1.57,-4.82,,-1.09
2026-06-21 23:17:58.610,-3.17,-4.97,3.83,-2.45
2026-06-21 23:17:58.611,-2.79,-1.92,1.78,-1.82
2026-06-21 23:17:58.612,-0.33,1.42,-0.94,0.39
2026-06-21 23:17:58.613,-2.54,-2.25,-1.06,-0.6
2026-06-21 23:17:58.614,-1.35,-1.83,0.01,0.62
2026-06-21 23:17:58.615,0.15,1.38,0.33,-0.18
2026-06-21 23:17:58.616,-0.88,0.78,-0.56,-1.17
2026-06-21 23:17:58.617,-0.9,3.18,-1.1,0.32
2026-06-21 23:17:58.618,1.65,3.22,-1.7,0.03
2026-06-21 23:17:58.619,2.64,1.26,-1.01,0.82
2026-06-21 23:17:58.620,-0.84,3.45,0.24,1.65
2026-06-21 23:17:58.621,-0.66,3.94,-0.82,0.94
2026-06-21 23:17:58.622,1.91,3.88,-0.59,1.45
2026-06-21 23:17:58.623,3.65,3.37,1.33,0.5
2026-06-21 23:17:58.624,1.08,0.13,-1.02,0.29
2026-06-21 23:17:58.625,0.55,1.5,-0.63,1.41
2026-06-21 23:17:58.626,4.23,1.68,1.4,0.5
2026-06-21 23:17:58.627,1.75,-1.04,0.74,0.93
2026-06-21 23:17:58.628,-0.34,,-0.38,-0.18
2026-06-21 23:17:58.629,0.07,-3.84,-0.56,-4.13
2026-06-21 23:17:58.630,0.21,-4.55,0.39,-3.65
2026-06-21 23:17:58.644,-2.5,-4.31,0.85,-1.89
2026-06-21 23:17:58.645,-4.69,-4.31,0.1,-0.31
2026-06-21 23:17:58.646,-1.63,-1.94,0.14,0.78
2026-06-21 23:17:58.647,-2.68,-1.2,1.67,-0.81
2026-06-21 23:17:58.648,-3.39,-1.63,1.41,-0.85
2026-06-21 23:17:58.649,-1.6,-0.46,0.31,0.34
2026-06-21 23:17:58.650,-1.08,-0.61,2.06,0.9
2026-06-21 23:17:58.651,-0.38,0.53,0.76,0.71
2026-06-21 23:17:58.652,-2.19,2.51,-1.86,1.73
2026-06-21 23:17:58.653,1.03,1.5,-0.34,1.72
2026-06-21 23:17:58.654,3.52,1.33,-0.63,1.42
2026-06-21 23:17:58.655,1.36,0.7,-1.73,2.7
2026-06-21 23:17:58.656,2.13,-0.45,-2.14,2.12
2026-06-21 23:17:58.657,1.75,-0.17,-0.99,1.34
2026-06-21 23:17:58.658,0.69,-0.56,-1.68,0.81
2026-06-21 23:17:58.659,0.94,0.49,-1.27,-0.09
2026-06-21 23:17:58.660,0.47,2.99,0.66,0.31
2026-06-21 23:17:58.661,-0.02,0.84,-1.5,-1.74
2026-06-21 23:17:58.662,1.61,-1.19,0.15,-3.94
2026-06-21 23:17:58.663,3.19,-0.52,1.19,-2.59
2026-06-21 23:17:58.664,0.15,0.6,1.01,-1.63
2026-06-21 23:17:58.665,-1.25,0.68,1.47,-2.59
2026-06-21 23:17:58.666,-0.54,0.54,1.11,-1.33
2026-06-21 23:17:58.667,-2.11,-1.14,1.83,-1.11
2026-06-21 23:17:58.668,-1.57,-1.38,1.22,-1.59
2026-06-21 23:17:58.669,-0.46,1.39,1.45,1.39
2026-06-21 23:17:58.670,-0.69,-1.77,0.87,1.92
2026-06-21 23:17:58.671,-0.22,-1.92,1.04,1.72
2026-06-21 23:17:58.672,0.36,0.86,1.59,2.01
2026-06-21 23:17:58.673,-0.84,1.02,-2.91,1.08
2026-06-21 23:17:58.674,-0.01,1.22,-3.42,1.13
2026-06-21 23:17:58.675,-1.02,-0.56,-1.62,1.72
2026-06-21 23:17:58.676,0.41,0.01,-1.26,1.57
2026-06-21 23:17:58.677,3.55,0.59,-0.11,0.48
2026-06-21 23:17:58.678,1.04,1.88,-1.24,0.22
2026-06-21 23:17:58.679,1.09,3.27,-0.6,0.64
2026-06-21 23:17:58.680,-0.67,0.12,-0.38,-0.43
2026-06-21 23:17:58.681,-1.07,-0.83,-0.04,-1.56
2026-06-21 23:17:58.682,2.5,0.46,0.32,-0.1
2026-06-21 23:17:58.683,-1.3,-0.66,0.43,-0.51
2026-06-21 23:17:58.684,-1.83,-2.27,0.67,-0.15
2026-06-21 23:17:58.685,-1.93,-1.83,0.56,-0.78
2026-06-21 23:17:58.686,-1.65,0.01,0.54,-2.4
2026-06-21 23:17:58.687,0.15,0.38,1.07,-0.43
2026-06-21 23:17:58.688,-2.37,0.32,-0.13,0.01
2026-06-21 23:17:58.689,0.72,1.09,-1.22,0.48
2026-06-21 23:17:58.690,-1.09,0.1,1.41,-0.08
2026-06-21 23:17:58.691,-1.21,0.23,0.83,-0.98
2026-06-21 23:17:58.692,6.29,-0.85,-0.86,-0.97
2026-06-21 23:17:58.693,4.48,-1.74,0.59,-2.16
2026-06-21 23:17:58.681,0.81,0.65,0.11,-0.12
2026-06-21 23:17:58.682,0.77,-1.33,-0.7,0.65
2026-06-21 23:17:58.683,-1.4,-1.02,-1.01,-0.08
2026-06-21 23:17:58.684,-1.33,1.75,-0.73,1.5
2026-06-21 23:17:58.685,-0.76,0.67,-0.06,1.28
2026-06-21 23:17:58.686,-0.64,1.07,-1.27,1.63
2026-06-21 23:17:58.687,0.38,-0.91,-1.09,0.91
2026-06-21 23:17:58.688,-0.37,-0.8,-0.98,0.42
2026-06-21 23:17:58.689,-1.97,1.13,-0.41,0.74
2026-06-21 23:17:58.690,-0.89,-1.83,2.69,-0.51
2026-06-21 23:17:58.691,0.11,1.27,2.41,-1.46
2026-06-21 23:17:58.692,-1.24,2.63,-0.28,-0.24
2026-06-21 23:17:58.693,-0.15,0.24,0.83,1.45
2026-06-21 23:17:58.694,0.17,1.26,1.22,0.36
2026-06-21 23:17:58.695,-0.31,0.02,0.76,-0.1
2026-06-21 23:17:58.696,-0.42,-2.05,0.96,1.17
2026-06-21 23:17:58.697,-0.47,-1.6,-0.47,1.58
2026-06-21 23:17:58.698,-0.69,-1.5,-1.65,-1.19
2026-06-21 23:17:58.699,-0.65,0.22,-0.97,-4.16
2026-06-21 23:17:58.700,0.73,1.09,-1,-1.28
2026-06-21 23:17:58.701,-0.19,-1.29,-0.41,0.69
2026-06-21 23:17:58.702,0.46,0.36,-0.96,-0.11
2026-06-21 23:17:58.703,3.59,2.46,-1.08,1.31
2026-06-21 23:17:58.704,1.15,0.93,1.14,0.33
2026-06-21 23:17:58.705,-0.47,-0.17,0.86,-0.48
2026-06-21 23:17:58.706,0.45,0.4,0.57,-0.41
2026-06-21 23:17:58.707,-0.55,0.34,-0.21,-1.64
2026-06-21 23:17:58.708,-0.31,-0.11,0.13,0.58
2026-06-21 23:17:58.709,-1.73,-2.41,1.29,1.01
2026-06-21 23:17:58.710,-0.09,-1.18,-1.57,-0.59
2026-06-21 23:17:58.711,1.79,1.32,-1.85,-0.91
2026-06-21 23:17:58.712,-1.38,0.33,0.04,-0.87
2026-06-21 23:17:58.713,-0.6,-0.04,0.23,-0.05
2026-06-21 23:17:58.714,1.48,-1.31,2.15,0.61
2026-06-21 23:17:58.715,-1.22,-1,0.8,1.07
2026-06-21 23:17:58.716,-2.21,-0.34,-1.52,0.59
2026-06-21 23:17:58.717,-1.06,-1.98,-0.57,1.56
2026-06-21 23:17:58.718,1.73,-0.59,0.15,0.53
2026-06-21 23:17:58.719,-0.11,0.68,0.44,0.39
2026-06-21 23:17:58.720,-0.5,0.88,0.31,2.15
2026-06-21 23:17:58.721,1.8,0.75,-0.9,0.26
2026-06-21 23:17:58.722,1.65,1.4,-0.75,0.88
2026-06-21 23:17:58.723,0.98,3.16,-1.3,0.27
2026-06-21 23:17:58.724,1.62,1.53,-1.42,-1.24
2026-06-21 23:17:58.725,2,0.13,-0.58,0.22
2026-06-21 23:17:58.726,2.78,0.53,-0.39,-1.52
2026-06-21 23:17:58.727,4.85,1.1,1.41,-0.99
2026-06-21 23:17:58.728,2.79,-0.62,0.48,-0.66
2026-06-21 23:17:58.729,7.36,-1.05,0.51,-1.07
2026-06-21 23:17:58.730,0.04,-0.13,1.21,-1.35
2026-06-21 23:17:58.746,-12.97,-1.78,0.19,-2.65
2026-06-21 23:17:58.747,-4.69,-1.61,3.01,0.04
2026-06-21 23:17:58.748,-2.51,-0.29,2.43,-0.36
2026-06-21 23:17:58.749,-4,-0.42,0.74,-0.37
2026-06-21 23:17:58.750,2.27,-3.7,-0.5,1.25
2026-06-21 23:17:58.751,-0.55,-2.17,-1.73,0.91
2026-06-21 23:17:58.752,-1.21,0.79,0.69,0.83
2026-06-21 23:17:58.753,-0.02,-1.86,0.11,0.47
2026-06-21 23:17:58.754,1.25,-0.62,-1.81,0.57
2026-06-21 23:17:58.755,0.88,1.77,-1.3,0.61
2026-06-21 23:17:58.756,0.02,1.31,-0.13,1.11
2026-06-21 23:17:58.757,0.45,2.01,-0.9,2.15
2026-06-21 23:17:58.758,-0.38,2.29,-0.47,1.43
2026-06-21 23:17:58.759,0.45,1.34,0.68,0.43
2026-06-21 23:17:58.760,1.47,0.75,0.11,0.78
2026-06-21 23:17:58.761,1.72,-0.19,-0.34,0.25
2026-06-21 23:17:58.762,-0.09,1.52,-1.87,1.75
2026-06-21 23:17:58.763,2.35,3.27,-1.77,
2026-06-21 23:17:58.764,0.32,0.39,0.77,0.07
2026-06-21 23:17:58.765,0.73,0.2,-0.18,-5.45
2026-06-21 23:17:58.766,1.64,0.59,-0.69,-3.59
2026-06-21 23:17:58.767,-2.57,-1.7,1.06,0.57
2026-06-21 23:17:58.768,-1.21,-0.46,0.68,-1.47
2026-06-21 23:17:58.769,-0.59,-0.49,1.29,-1.93
2026-06-21 23:17:58.770,-0.91,-0.27,1.81,0.59
2026-06-21 23:17:58.771,-0.07,-0.1,0.28,1.26
2026-06-21 23:17:58.772,0.32,-0.73,0.78,-0.5
2026-06-21 23:17:58.773,1.06,-0.47,0.43,-1.85
2026-06-21 23:17:58.774,-0.17,-1.26,0.9,-0.16
2026-06-21 23:17:58.775,-0.3,-0.91,,0.55
2026-06-21 23:17:58.776,-0.15,-1.24,1.39,0.71
2026-06-21 23:17:58.777,-1.28,-4.13,-1.27,1.31
2026-06-21 23:17:58.778,-0.25,-2.92,-1.13,1.1
2026-06-21 23:17:58.779,-1.69,0.97,-1.14,1.29
2026-06-21 23:17:58.780,-2,-1.07,-1.55,1.14
2026-06-21 23:17:58.781,-1.44,-0.24,-0.91,1.23
2026-06-21 23:17:58.782,1.06,2.04,-0.16,1.1
2026-06-21 23:17:58.783,1.13,0.8,1.01,-0.6
2026-06-21 23:17:58.784,-0.91,3.24,-0.43,-0.22
2026-06-21 23:17:58.785,-0.29,3.24,-1.02,-1.08
2026-06-21 23:17:58.786,-2.18,-2.42,-0.08,-1.11
2026-06-21 23:17:58.787,-0.62,-0.96,1.56,0.05
2026-06-21 23:17:58.788,1.58,1.5,1.63,-0.18
2026-06-21 23:17:58.789,-1.75,-0.85,-0.19,-0.06
2026-06-21 23:17:58.790,-2.12,3.75,0.8,-1.64
2026-06-21 23:17:58.791,-1.59,7.31,1.66,-0.54
2026-06-21 23:17:58.792,0.45,2.29,-0.23,0.02
2026-06-21 23:17:58.793,3.61,-0.03,0.34,-0.02
2026-06-21 23:17:58.794,2.39,,1.72,0.13
2026-06-21 23:17:58.795,1.98,-1.04,-0.18,-1.33
2026-06-21 23:17:58.780,,-3.1,-0.94,0.45
2026-06-21 23:17:58.781,-0.11,-0.37,-1.46,0.89
2026-06-21 23:17:58.782,-1.9,-0.23,-1.02,-0.01
2026-06-21 23:17:58.783,-1.13,-4.97,-0.03,0.55
2026-06-21 23:17:58.784,-0.27,-5.68,-0.26,0.85
2026-06-21 23:17:58.785,-0.83,-3.66,-0.58,0.24
2026-06-21 23:17:58.786,-0.52,-0.87,-1.96,-0.1
2026-06-21 23:17:58.787,-0.05,0.46,-1.65,0.07
2026-06-21 23:17:58.788,-0.37,-0.56,1.14,0.4
2026-06-21 23:17:58.789,-0.08,0.77,0.31,0.19
2026-06-21 23:17:58.790,-0.65,0.22,-0.41,-0.71
2026-06-21 23:17:58.791,0.06,0.72,0.39,-0.12
2026-06-21 23:17:58.792,0.46,1.89,1.94,-0.16
2026-06-21 23:17:58.793,0.34,-0.01,2.72,-1.84
2026-06-21 23:17:58.794,1.76,1.79,0.06,0.01
2026-06-21 23:17:58.795,0.53,4.85,-1.39,1.94
2026-06-21 23:17:58.796,-0.53,2.9,-0.41,1.31
2026-06-21 23:17:58.797,-0.1,2.03,-0.06,2.65
2026-06-21 23:17:58.798,-0.27,2.62,-0.87,0.99
2026-06-21 23:17:58.799,0.09,-1,0.53,-1.51
2026-06-21 23:17:58.800,0.8,-2.97,0.29,0.01
2026-06-21 23:17:58.801,0.13,-1.14,-0.28,-0.68
2026-06-21 23:17:58.802,0.22,-0.09,1.06,-2.59
2026-06-21 23:17:58.803,0.77,-0.62,-0.31,-1.02
2026-06-21 23:17:58.804,0.15,-1.71,-1.61,-0.11
2026-06-21 23:17:58.805,0.59,-0.96,-0.19,0.11
2026-06-21 23:17:58.806,-0.37,-1.46,0.72,-0.42
2026-06-21 23:17:58.807,-0.37,-2.86,0.99,-0.4
2026-06-21 23:17:58.808,1.29,-0.55,1.53,1.52
2026-06-21 23:17:58.809,0.07,0.76,1.47,1.55
2026-06-21 23:17:58.810,-1.74,-0.34,-1.06,-0.5
2026-06-21 23:17:58.811,0.54,-0.18,-1.99,-0.2
2026-06-21 23:17:58.812,0,-0.86,-0.84,-0.13
2026-06-21 23:17:58.813,-0.39,-0.02,-0.93,-0.07
2026-06-21 23:17:58.814,1.43,1.34,0.79,0.47
2026-06-21 23:17:58.815,-0.75,0.94,1.32,-0.82
2026-06-21 23:17:58.816,-1.4,2.53,-0.24,-0.14
2026-06-21 23:17:58.817,-2.13,-0.05,0.35,0.6
2026-06-21 23:17:58.818,-1.41,-2.26,0.89,1.03
2026-06-21 23:17:58.819,-1.04,-1.16,-0.63,1.1
2026-06-21 23:17:58.820,0.05,-0.96,-1.89,0.5
2026-06-21 23:17:58.821,2.98,1.98,-0.79,-0.89
2026-06-21 23:17:58.822,-0.83,1.29,-0.58,-0.28
2026-06-21 23:17:58.823,0.49,0.6,-0.85,0.26
2026-06-21 23:17:58.824,3.33,3.35,1.07,-0.67
2026-06-21 23:17:58.825,2.32,3.14,1.42,0.04
2026-06-21 23:17:58.826,2.02,0.82,0.67,0.04
2026-06-21 23:17:58.827,0.57,-0.68,0.54,0.12
2026-06-21 23:17:58.828,2.13,0.1,0.33,-1.01
2026-06-21 23:17:58.829,-0.19,-1.36,-0.28,-2.07
2026-06-21 23:17:58.830,-1.17,-1.86,-1.01,-1.84
2026-06-21 23:17:58.820,1.19,-0.43,-0.31,0.52
2026-06-21 23:17:58.821,-1.16,-1.43,1.3,2.69
2026-06-21 23:17:58.822,-1.94,-1.64,0.3,-0.34
2026-06-21 23:17:58.823,-2.99,-1.95,-0.67,-1.51
2026-06-21 23:17:58.824,-2.47,-0.34,0.02,0.15
2026-06-21 23:17:58.825,-0.12,0.64,0.22,-0.56
2026-06-21 23:17:58.826,-0.67,-2.49,0.64,0
2026-06-21 23:17:58.827,-2.1,-1.42,0.17,0.32
2026-06-21 23:17:58.828,-0.44,1.32,-0.26,0.77
2026-06-21 23:17:58.829,0.43,2.01,1.17,1.03
2026-06-21 23:17:58.830,-0.23,1.84,0.41,3.36
2026-06-21 23:17:58.831,0.47,1.97,-1.36,1.3
2026-06-21 23:17:58.832,0.49,1.54,-1.24,-1.04
2026-06-21 23:17:58.833,0.48,0.9,-0.38,1.49
2026-06-21 23:17:58.834,0.97,0.55,-0.39,-0.21
2026-06-21 23:17:58.835,2,-1.31,-1.6,0.41
2026-06-21 23:17:58.836,-0.41,-0.17,0.62,-0.54
2026-06-21 23:17:58.837,0.41,0.23,1.1,-1.45
2026-06-21 23:17:58.838,3.88,-1.68,-1.57,-1.54
2026-06-21 23:17:58.839,0.88,-1.17,-1.74,-3.72
2026-06-21 23:17:58.840,-0.25,-1.09,0.79,-1.19
2026-06-21 23:17:58.841,0.25,-0.55,1.7,1.54
2026-06-21 23:17:58.842,-1.76,-1.55,0.64,1.11
2026-06-21 23:17:58.843,-0.89,-0.34,0.21,1.27
2026-06-21 23:17:58.844,-0.23,0.27,1.19,-1.51
2026-06-21 23:17:58.845,-0.18,-0.88,0.18,-1.93
2026-06-21 23:17:58.846,-0.31,2.53,0.28,-0.34
2026-06-21 23:17:58.847,-0.99,0.43,2.59,-0.38
2026-06-21 23:17:58.848,-0.32,0.61,2.7,-0.13
2026-06-21 23:17:58.849,-1.03,-0.25,1.31,0.2
2026-06-21 23:17:58.850,-1.1,-3,-2.24,1.41
2026-06-21 23:17:58.851,0.54,2.75,-1.22,1.46
2026-06-21 23:17:58.852,0.29,2.97,0.17,1.1
2026-06-21 23:17:58.853,0.65,-0.9,-2.22,1.11
2026-06-21 23:17:58.854,0.71,-0.85,-1.79,1.35
2026-06-21 23:17:58.855,-0.09,0.19,-2.16,0.81
2026-06-21 23:17:58.856,1.28,1.1,-1.91,-0.09
2026-06-21 23:17:58.857,-0.34,-0.36,0.05,-0.17
2026-06-21 23:17:58.858,-1.09,-0.6,-0.72,0.11
2026-06-21 23:17:58.859,1.81,-0.21,-0.1,-0.28
2026-06-21 23:17:58.860,-1.27,-0.39,-0.01,-0.26
2026-06-21 23:17:58.861,-0.35,0.04,2.23,-0.37
2026-06-21 23:17:58.862,2.59,0.02,1.91,-1.17
2026-06-21 23:17:58.863,-0.2,-0.4,-0.3,-1.19
2026-06-21 23:17:58.864,-0.25,-1.03,2.37,-0.27
2026-06-21 23:17:58.865,0.44,0.05,0.67,0.36
2026-06-21 23:17:58.866,-1.06,0.27,-0.8,-0.03
2026-06-21 23:17:58.867,-1.19,-0.26,1.59,-0.51
2026-06-21 23:17:58.868,0.56,-0.95,-0.21,0.23
2026-06-21 23:17:58.869,2.94,0.13,-1.08,0.13
2026-06-21 23:17:58.880,2.05,0.03,-1.4,-0.43
2026-06-21 23:17:58.881,-1.58,-0.44,-2.03,0.81
2026-06-21 23:17:58.882,-3.06,0.96,0.01,0.15
2026-06-21 23:17:58.883,-1.3,1.85,0.1,0.04
2026-06-21 23:17:58.884,0.26,1.15,-0.74,0.52
2026-06-21 23:17:58.885,-0.27,-0.03,0.73,0.03
2026-06-21 23:17:58.886,0.99,-1.05,0.92,-0.65
2026-06-21 23:17:58.887,0.51,-2.87,0.73,-0.02
2026-06-21 23:17:58.888,0.9,-1.59,1.06,0.78
2026-06-21 23:17:58.889,1.25,0.63,-0.16,-0.97
2026-06-21 23:17:58.890,-0.14,0.11,0.6,-0.51
2026-06-21 23:17:58.891,-0.21,0.48,-0.47,1.21
2026-06-21 23:17:58.892,0.25,-0.09,-2.32,0.02
2026-06-21 23:17:58.893,0,-0.98,-1.54,-0.32
2026-06-21 23:17:58.894,-0.11,1.34,0.01,0.61
2026-06-21 23:17:58.895,0.18,0.72,0.74,-0.14
2026-06-21 23:17:58.896,0.4,1.39,0.5,1.37
2026-06-21 23:17:58.897,0.27,0.74,0.02,0.83
2026-06-21 23:17:58.898,1.08,-0.23,0.11,-2.09
2026-06-21 23:17:58.899,0.97,0.91,1.16,-1.97
2026-06-21 23:17:58.900,-0.57,0.17,0.59,-0.53
2026-06-21 23:17:58.901,-0.01,1.36,-1.55,0.12
2026-06-21 23:17:58.902,0,1.04,-1.01,-0.21
2026-06-21 23:17:58.903,0.55,0.21,-0.4,0.57
2026-06-21 23:17:58.904,0.42,0.39,1,0.65
2026-06-21 23:17:58.905,-1.53,-1.34,-0.22,-0.79
2026-06-21 23:17:58.906,-2.38,-0.61,-1.57,0.11
2026-06-21 23:17:58.907,-1.45,-0.19,0.84,-0.19
2026-06-21 23:17:58.908,-2.18,-1.29,1.25,-0.01
2026-06-21 23:17:58.909,-2.23,-0.73,2.19,1.01
2026-06-21 23:17:58.910,0.39,-1.13,1.4,0.09
2026-06-21 23:17:58.911,1.81,0.51,-0.42,-0.09
2026-06-21 23:17:58.912,-0.14,-0.27,-0.92,0.31
2026-06-21 23:17:58.913,0.34,-1.2,-1.71,0.55
2026-06-21 23:17:58.914,1.11,-1.01,-0.81,-0.21
2026-06-21 23:17:58.915,1.77,-1.34,-0.14,0.62
2026-06-21 23:17:58.916,3.49,-0.02,-0.76,0.7
2026-06-21 23:17:58.917,0.69,0,0.53,0.87
2026-06-21 23:17:58.918,-0.9,2.73,-0.1,-0.17
2026-06-21 23:17:58.919,-1.28,3.71,-0.34,-1.34
2026-06-21 23:17:58.920,-1.1,-1.13,0.63,-0.3
2026-06-21 23:17:58.921,0.39,-0.06,0.27,-0.74
2026-06-21 23:17:58.922,-0.85,2.56,0.01,-0.36
2026-06-21 23:17:58.923,0.79,0.3,0.86,0.34
2026-06-21 23:17:58.924,2.33,0.04,0.26,0.31
2026-06-21 23:17:58.925,0.42,-0.4,-0.91,-0.27
2026-06-21 23:17:58.926,0.7,0.11,-0.23,-1.55
2026-06-21 23:17:58.927,-0.04,1.27,-0.41,0.12
2026-06-21 23:17:58.928,1.92,0.19,-0.77,-0.4
2026-06-21 23:17:58.929,0.93,-0.94,0.92,-1.65
2026-06-21 23:17:58.916,-1.49,-3.82,0.76,-0.71
2026-06-21 23:17:58.917,-1.14,-3.04,-0.04,-1.09
2026-06-21 23:17:58.918,-2.85,0.2,0.48,1.02
2026-06-21 23:17:58.919,-2.05,-0.61,0.53,0.14
2026-06-21 23:17:58.920,-0.55,-1.06,1,-0.11
2026-06-21 23:17:58.921,-0.57,0.78,-0.64,3.27
2026-06-21 23:17:58.922,0.15,0.92,-0.8,1.73
2026-06-21 23:17:58.923,-1.01,-1.91,0.58,-0.23
2026-06-21 23:17:58.924,-1.45,-1.86,0.56,0.19
2026-06-21 23:17:58.925,-0.97,2.6,-0.41,-0.47
2026-06-21 23:17:58.926,-1.57,1.38,0.39,0.3
2026-06-21 23:17:58.927,-1.16,0.27,-0.53,-0.1
2026-06-21 23:17:58.928,2.25,1.99,-1.26,-0.42
2026-06-21 23:17:58.929,3.26,0.16,0.41,0.19
2026-06-21 23:17:58.930,-0.44,0.48,0.98,0.33
2026-06-21 23:17:58.931,-1.2,-1.03,-1.65,0.48
2026-06-21 23:17:58.932,0.61,-2.61,-2.35,0.26
2026-06-21 23:17:58.933,4.32,-0.51,-0.48,1.67
2026-06-21 23:17:58.934,2.42,1.25,-0.23,1.03
2026-06-21 23:17:58.935,-1.42,1.93,-0.01,-1.93
2026-06-21 23:17:58.936,1.25,1,0.21,-1.87
2026-06-21 23:17:58.937,0.54,-1,1.2,-0.95
2026-06-21 23:17:58.938,-0.25,0.12,1.57,-1.39
2026-06-21 23:17:58.939,1.77,0.11,1.47,0.04
2026-06-21 23:17:58.940,0.66,-1.41,1.65,0.61
2026-06-21 23:17:58.941,-1.71,-1.06,0.71,-0.64
2026-06-21 23:17:58.942,-2.57,-0.64,0.54,-1.43
2026-06-21 23:17:58.943,-2.63,-0.6,1.44,-1.51
2026-06-21 23:17:58.944,-2.85,0.18,1.21,-0.41
2026-06-21 23:17:58.945,-2.69,1.32,0.68,1.52
2026-06-21 23:17:58.946,-1,1.03,-1.38,1.9
2026-06-21 23:17:58.947,1.37,-0.1,-2.31,0.51
2026-06-21 23:17:58.948,1.59,1.23,-1.75,0.01
2026-06-21 23:17:58.949,-1.17,2.28,-0.42,1.09
2026-06-21 23:17:58.950,-1.48,-1,0.06,0.29
2026-06-21 23:17:58.951,1.28,0.06,-0.94,0.18
2026-06-21 23:17:58.952,1.33,0.52,-0.67,0.49
2026-06-21 23:17:58.953,2.24,-1.4,-0.79,-0.83
2026-06-21 23:17:58.954,3.51,-0.95,-1.57,0.2
2026-06-21 23:17:58.955,-0.24,-1.66,0.14,0.35
2026-06-21 23:17:58.956,-2.64,0.32,2.15,0.24
2026-06-21 23:17:58.957,-0.3,0.23,1.73,0.79
2026-06-21 23:17:58.958,-0.52,-0.72,0.31,0.38
2026-06-21 23:17:58.959,-0.14,2.44,-0.05,-0.15
2026-06-21 23:17:58.960,0.71,0.13,0.1,-0.26
2026-06-21 23:17:58.961,0.01,-1.11,0.41,-0.1
2026-06-21 23:17:58.962,0.55,3.2,0.77,-1.03
2026-06-21 23:17:58.963,2.74,1.66,-0.99,-0.67
2026-06-21 23:17:58.964,2.84,-0.7,-0.82,0.39
2026-06-21 23:17:58.965,2.45,-1.28,0.69,0.35
2026-06-21 23:17:58.979,1.02,-1.64,-0.99,0.18
2026-06-21 23:17:58.980,-1.88,1.51,0.31,0.44
2026-06-21 23:17:58.981,-3.08,1.86,1.75,0.77
2026-06-21 23:17:58.982,-2.27,0.24,0.08,-0.45
2026-06-21 23:17:58.983,-2.64,0.64,-0.16,-0.08
2026-06-21 23:17:58.984,-1.18,-0.72,-0.19,0.04
2026-06-21 23:17:58.985,-0.11,-1.06,-0.37,-0.85
2026-06-21 23:17:58.986,-1.23,-0.47,-0.4,-0.16
2026-06-21 23:17:58.987,-0.73,0.6,0.27,-0.11
2026-06-21 23:17:58.988,-0.95,1.28,-0.62,-0.17
2026-06-21 23:17:58.989,-0.48,-1.02,-0.6,-0.16
2026-06-21 23:17:58.990,0.72,0.95,-1.7,-0.01
2026-06-21 23:17:58.991,-0.42,1.1,-2.33,-0.14
2026-06-21 23:17:58.992,0.12,-1.55,0.62,0.3
2026-06-21 23:17:58.993,4.48,-2.32,0.4,1.61
2026-06-21 23:17:58.994,2.74,-0.96,-0.75,0.57
2026-06-21 23:17:58.995,1.36,1.58,0.71,-0.46
2026-06-21 23:17:58.996,1.46,0.22,1.04,-0.01
2026-06-21 23:17:58.997,-0.44,-1.61,0.49,-1.06
2026-06-21 23:17:58.998,1.66,-0.29,-0.38,-0.56
2026-06-21 23:17:58.999,1.96,0.64,0.57,-0.26
2026-06-21 23:17:59.000,-1.98,0.89,-0.3,-1.32
2026-06-21 23:17:59.001,-1.25,2.04,-1.49,-0.26
2026-06-21 23:17:59.002,0.59,-0.44,0.73,-0.05
2026-06-21 23:17:59.003,-0.42,-2.12,-0.51,-0.22
2026-06-21 23:17:59.004,-1.82,-0.88,1.42,0.34
2026-06-21 23:17:59.005,-0.25,0.71,2.9,0.53
2026-06-21 23:17:59.006,1.09,-1.13,0.51,0.05
2026-06-21 23:17:59.007,0.31,-0.47,1.86,-0.38
2026-06-21 23:17:59.008,-2.88,2.92,1.66,-0.04
2026-06-21 23:17:59.009,-3.1,0.49,-2.82,0.25
2026-06-21 23:17:59.010,-1.31,-2.04,-4.44,0.12
2026-06-21 23:17:59.011,-1.7,-0.12,-1.21,0.1
2026-06-21 23:17:59.012,2.38,-0.65,0.43,0.45
2026-06-21 23:17:59.013,0.9,-1.94,-0.54,0.79
2026-06-21 23:17:59.014,-0.71,-0.11,0.55,0.85
2026-06-21 23:17:59.015,1.06,0.37,-0.37,-0.05
2026-06-21 23:17:59.016,0.06,0.37,-0.73,0.42
2026-06-21 23:17:59.017,2.67,-0.26,-0.5,0.75
2026-06-21 23:17:59.018,2.07,0.63,-2.14,-0.24
2026-06-21 23:17:59.019,-1.84,1.84,0.28,0.17
2026-06-21 23:17:59.020,-0.54,0.57,2.57,-1.37
2026-06-21 23:17:59.021,0.88,-0.52,1.89,-1.87
2026-06-21 23:17:59.022,-1.4,1.15,0.07,0.52
2026-06-21 23:17:59.023,-0.35,0.25,0.32,0.65
2026-06-21 23:17:59.024,2.58,0.32,0.73,0.18
2026-06-21 23:17:59.025,0.63,0.86,0.32,-0.26
2026-06-21 23:17:59.026,-0.11,0.37,-0.15,0.06
2026-06-21 23:17:59.027,1.48,-0.18,0.15,-0.51
2026-06-21 23:17:59.028,3.91,-2.83,-0.21,0.24
2026-06-21 23:17:59.015,2.43,-1.2,-1.85,-0.04
2026-06-21 23:17:59.016,-3.37,0.32,-0.11,-2.78
2026-06-21 23:17:59.017,-4.37,-0.89,1.47,0
2026-06-21 23:17:59.018,-3.86,0.67,0.78,0.21
2026-06-21 23:17:59.019,-2.07,-0.37,0.92,-0.43
2026-06-21 23:17:59.020,-2.41,-1.89,0.66,1.66
2026-06-21 23:17:59.021,-2.29,1.68,0.64,0.46
2026-06-21 23:17:59.022,-0.33,1.61,2.07,0.26
2026-06-21 23:17:59.023,-0.63,-0.9,-2.06,0.3
2026-06-21 23:17:59.024,3.05,-2.38,-4.5,0.56
2026-06-21 23:17:59.025,2.07,0.57,-0.57,0.9
2026-06-21 23:17:59.026,-2.3,3.76,-1.23,0.76
2026-06-21 23:17:59.027,-2.72,1.97,-1.84,-0.03
2026-06-21 23:17:59.028,-2.3,1.18,1.07,-0.84
2026-06-21 23:17:59.029,-0.81,0.79,0.67,0.89
2026-06-21 23:17:59.030,-0.27,-0.68,1.46,0.43
2026-06-21 23:17:59.031,-0.22,-1.99,2.18,0.54
2026-06-21 23:17:59.032,-0.92,-1.9,0.59,-0.04
2026-06-21 23:17:59.033,-0.28,0.04,0.59,-1.4
2026-06-21 23:17:59.034,0.88,-0.13,-0.1,-0.18
2026-06-21 23:17:59.035,-0.28,-2.78,0.71,-1.32
2026-06-21 23:17:59.036,1.37,-0.63,1.85,-0.62
2026-06-21 23:17:59.037,3.73,0.59,1.61,0
2026-06-21 23:17:59.038,3.02,-0.17,0.04,-0.88
2026-06-21 23:17:59.039,-0.08,0.99,0.12,0.59
2026-06-21 23:17:59.040,-0.53,-1.57,1.57,-0.62
2026-06-21 23:17:59.041,1.83,-1.35,-0.69,0.69
2026-06-21 23:17:59.042,0.83,2.68,0.13,1.78
2026-06-21 23:17:59.043,0.9,2.65,0.82,-0.86
2026-06-21 23:17:59.044,0.58,-0.74,-4.12,-1.36
2026-06-21 23:17:59.045,-2.57,-1.38,-3.58,-0.25
2026-06-21 23:17:59.046,-2.75,0.86,-1.13,1.07
2026-06-21 23:17:59.047,-0.54,-1.69,-0.63,1.09
2026-06-21 23:17:59.048,0.42,-2.78,0.05,1.05
2026-06-21 23:17:59.049,-1.78,1.09,-1.97,-0.01
2026-06-21 23:17:59.050,-2.01,3.07,-0.18,-1.45
2026-06-21 23:17:59.051,0.19,0.94,0.3,-0.13
2026-06-21 23:17:59.052,-0.7,-0.69,-1.09,0.66
2026-06-21 23:17:59.053,-0.71,2.01,1.01,-0.08
2026-06-21 23:17:59.054,-0.46,0.9,1.01,0.44
2026-06-21 23:17:59.055,0.13,-0.31,1.1,-0.04
2026-06-21 23:17:59.056,0.59,-0.73,1.55,0.44
2026-06-21 23:17:59.057,0.07,-2.61,1.08,-0.02
2026-06-21 23:17:59.058,0.22,-1.16,1.58,-1.08
2026-06-21 23:17:59.059,0.56,0.38,-0.83,-0.69
2026-06-21 23:17:59.060,1.7,2.03,-1.34,-1.17
2026-06-21 23:17:59.061,1.53,0.68,0.3,0.41
2026-06-21 23:17:59.062,1.77,-0.08,-1.29,0.14
2026-06-21 23:17:59.063,2.34,0.91,0.14,-1.76
2026-06-21 23:17:59.064,2.62,-1.65,0.72,-0.85
2026-06-21 23:17:59.080,0.73,-3.51,-0.69,0.51
2026-06-21 23:17:59.081,-4.1,-3.73,0.37,1.57
2026-06-21 23:17:59.082,-2.2,0.12,-0.08,0.13
2026-06-21 23:17:59.083,1.37,-0.03,-0.61,0.21
2026-06-21 23:17:59.084,-1.19,-2.75,0.6,1.27
2026-06-21 23:17:59.085,-0.35,0.44,0,-0.41
2026-06-21 23:17:59.086,1.95,1.8,-0.95,-0.43
2026-06-21 23:17:59.087,0.16,1.19,-0.05,0.35
2026-06-21 23:17:59.088,0.58,1.4,-0.16,-0.27
2026-06-21 23:17:59.089,1.29,1.23,-1.52,0.32
2026-06-21 23:17:59.090,-0.87,1.06,-0.91,0.03
2026-06-21 23:17:59.091,1.22,1.42,1.05,0.33
2026-06-21 23:17:59.092,1.25,-0.87,-0.13,0.52
2026-06-21 23:17:59.093,-1.88,-1.45,-0.18,0.29
2026-06-21 23:17:59.094,-0.6,0.54,0.62,1.24
2026-06-21 23:17:59.095,0.3,-1.5,-0.75,0.12
2026-06-21 23:17:59.096,-0.05,-0.78,0.09,1.37
2026-06-21 23:17:59.097,0.79,2.1,0.79,1.5
2026-06-21 23:17:59.098,1.09,1.1,0.55,-3.66
2026-06-21 23:17:59.099,0.42,1.91,1.56,-3.05
2026-06-21 23:17:59.100,0.62,1.14,0.96,0.21
2026-06-21 23:17:59.101,1.57,-2.25,-1.59,0.52
2026-06-21 23:17:59.102,0.94,-0.3,-0.96,1.55
2026-06-21 23:17:59.103,0.41,3.08,0.89,-0.99
2026-06-21 23:17:59.104,0.55,1.34,1.88,-0.17
2026-06-21 23:17:59.105,-0.79,-1.75,1.23,0.49
2026-06-21 23:17:59.106,-1.2,-2.02,0.59,0.52
2026-06-21 23:17:59.107,-1.2,-0.92,2.78,0.51
2026-06-21 23:17:59.108,-0.41,1.02,3.95,-1.45
2026-06-21 23:17:59.109,-1.56,0.76,0.56,0.91
2026-06-21 23:17:59.110,-3.67,-1.58,-1.41,1.05
2026-06-21 23:17:59.111,-1.65,1.14,-2.63,-0.93
2026-06-21 23:17:59.112,-1.7,1.25,-3.71,-0.27
2026-06-21 23:17:59.113,1.09,0.11,-1.14,-0.79
2026-06-21 23:17:59.114,4.27,1.23,0.01,0.44
2026-06-21 23:17:59.115,-0.33,-0.58,-1.63,0.5
2026-06-21 23:17:59.116,-1.37,-0.57,-1.11,-0.21
2026-06-21 23:17:59.117,-1.4,-0.99,1.34,0.85
2026-06-21 23:17:59.118,-1.03,-1.33,0.07,-0.2
2026-06-21 23:17:59.119,3.41,0.03,-1.56,0.57
2026-06-21 23:17:59.120,3.18,0.05,-2,0.35
2026-06-21 23:17:59.121,2.04,0.4,0.88,-0.4
2026-06-21 23:17:59.122,1.62,0.21,1.52,0.04
2026-06-21 23:17:59.123,0.93,0.24,-0.9,0.21
2026-06-21 23:17:59.124,0.44,1.65,0.56,-0.24
2026-06-21 23:17:59.125,0.71,0.24,2.69,0.08
2026-06-21 23:17:59.126,1.95,-0.25,1.35,0.31
2026-06-21 23:17:59.127,0.42,1.3,0.15,-0.87
2026-06-21 23:17:59.128,0.65,0.81,-1.23,-0.54
2026-06-21 23:17:59.129,3.37,0.3,-0.41,-0.28
2026-06-21 23:17:59.132,,-0.62,0.83,-0.45
2026-06-21 23:17:59.128,-1.68,-1.52,0.86,0.42
2026-06-21 23:17:59.129,-6.25,0.69,2.14,0.39
2026-06-21 23:17:59.130,-2.59,-1.46,1.39,-0.33
2026-06-21 23:17:59.131,-1.22,-1.48,-0.43,-0.36
2026-06-21 23:17:59.132,-1.99,1.42,-1.16,-0.24
2026-06-21 23:17:59.133,-2.15,-0.51,1.08,-0.34
2026-06-21 23:17:59.134,-1.94,-0.33,-0.58,0.75
2026-06-21 23:17:59.135,0.84,0.17,-2.88,-0.47
2026-06-21 23:17:59.136,2.39,-0.51,-0.67,0.28
2026-06-21 23:17:59.137,1.36,0.06,0.1,2.66
2026-06-21 23:17:59.138,0.92,-0.05,-0.47,0.35
2026-06-21 23:17:59.139,0.95,0.75,-0.12,-0.98
2026-06-21 23:17:59.140,1.01,1.18,-0.23,0.18
2026-06-21 23:17:59.141,0.46,0.53,-0.97,0.3
2026-06-21 23:17:59.142,1.18,0.22,-1.56,0.05
2026-06-21 23:17:59.143,1.45,0.15,0.03,0.82
2026-06-21 23:17:59.144,-0.19,0.3,0.2,
2026-06-21 23:17:59.145,0.11,-0.34,0.5,-0.09
2026-06-21 23:17:59.146,0.83,-0.21,0.35,-1.91
2026-06-21 23:17:59.147,-0.48,-0.02,-1.44,-0.82
2026-06-21 23:17:59.148,0.47,-1.56,0.81,-0.18
2026-06-21 23:17:59.149,2.98,-1.06,0.3,0.31
2026-06-21 23:17:59.150,1.71,-1.58,-0.07,-0.3
2026-06-21 23:17:59.151,0.06,-1.88,1.23,-1.76
2026-06-21 23:17:59.152,-1.14,0.76,1.26,-1.27
2026-06-21 23:17:59.153,-1.13,2.05,1.65,-0.87
2026-06-21 23:17:59.154,-0.8,0.76,0.65,0.25
2026-06-21 23:17:59.155,-1.67,-0.35,1.63,0.53
2026-06-21 23:17:59.156,-2.04,0.83,,1.09
2026-06-21 23:17:59.157,-2.46,-0.48,-0.31,0.12
2026-06-21 23:17:59.158,-3.32,-0.48,-3.96,-0.41
2026-06-21 23:17:59.159,-1.7,-0.73,-1.17,1.36
2026-06-21 23:17:59.160,-0.72,-1.06,-1.37,1.1
2026-06-21 23:17:59.161,0.04,-0.84,-1.75,1.31
2026-06-21 23:17:59.162,3.9,1.38,0.12,0.85
2026-06-21 23:17:59.163,2.44,0.82,-0.13,-0.19
2026-06-21 23:17:59.164,-0.82,-0.32,1.76,0.68
2026-06-21 23:17:59.165,-2.05,-0.34,-0.43,-0.17
2026-06-21 23:17:59.166,1.23,0.92,-2.89,-0.93
2026-06-21 23:17:59.167,1.91,0.49,-0.67,-0.19
2026-06-21 23:17:59.168,-2.69,-0.36,0.92,0.66
2026-06-21 23:17:59.169,-0.49,0.87,0.9,-1.9
2026-06-21 23:17:59.170,1.84,1.44,0.52,-1.65
2026-06-21 23:17:59.171,-0.03,3.13,1.78,1.15
2026-06-21 23:17:59.172,0.86,-0.82,2.44,-0.22
2026-06-21 23:17:59.173,0.07,1.54,1.08,-0.23
2026-06-21 23:17:59.174,1.13,1.07,1.34,0.94
2026-06-21 23:17:59.175,2.55,,-0.72,0.03
2026-06-21 23:17:59.176,0.7,-6.62,-1.12,-0.19
2026-06-21 23:17:59.177,-0.82,0.36,0.53,-0.63
2026-06-21 23:17:59.164,-1.95,3.6,0.34,-1.24
2026-06-21 23:17:59.165,-2.7,-1.09,1.15,0.29
2026-06-21 23:17:59.166,-2.1,0.64,0.8,0.08
2026-06-21 23:17:59.167,-1.63,-1.63,-1.32,-0.42
2026-06-21 23:17:59.168,-3.17,-0.97,-3.59,0.8
2026-06-21 23:17:59.169,-1.35,-2.24,-1.26,0.21
2026-06-21 23:17:59.170,0.27,-0.46,1.58,-0.58
2026-06-21 23:17:59.171,-0.26,0.45,-0.49,-0.06
2026-06-21 23:17:59.172,-0.28,0.33,-0.03,-0.31
2026-06-21 23:17:59.173,0.76,2.25,0,0.61
2026-06-21 23:17:59.174,1.54,-2.44,-2.28,-0.16
2026-06-21 23:17:59.175,0.96,-0.14,-0.04,-0.12
2026-06-21 23:17:59.176,0.14,-0.19,0.86,1.59
2026-06-21 23:17:59.177,-0.55,0.19,-0.71,1.57
2026-06-21 23:17:59.178,-0.6,1.36,0.93,0.25
2026-06-21 23:17:59.179,0.21,-0.74,2.53,0.15
2026-06-21 23:17:59.180,0.86,2.07,0.25,2.21
2026-06-21 23:17:59.181,2.51,0.71,-0.45,0.25
2026-06-21 23:17:59.182,2.1,-0.55,-0.57,-3.8
2026-06-21 23:17:59.183,-0.07,-0.56,-1.04,-1.93
2026-06-21 23:17:59.184,-0.62,-0.85,1.21,1.07
2026-06-21 23:17:59.185,-0.43,2.59,1.32,-0.14
2026-06-21 23:17:59.186,-0.87,-1.12,0.81,-1.26
2026-06-21 23:17:59.187,-0.85,0.28,-0.38,-0.92
2026-06-21 23:17:59.188,-0.23,3.63,0.52,0.37
2026-06-21 23:17:59.189,-0.52,-1.06,1.28,0.66
2026-06-21 23:17:59.190,-1.9,-0.73,-1.58,-0.46
2026-06-21 23:17:59.191,-0.01,-0.32,1.16,-0.96
2026-06-21 23:17:59.192,2.09,-0.75,1.43,-0.56
2026-06-21 23:17:59.193,1.45,-1.12,-3.54,-0.21
2026-06-21 23:17:59.194,0.72,-1.52,-0.05,0.12
2026-06-21 23:17:59.195,-1.12,-0.15,0.81,0.53
2026-06-21 23:17:59.196,0.39,-0.76,-1.28,1.65
2026-06-21 23:17:59.197,3.71,-0.58,2.04,1.22
2026-06-21 23:17:59.198,0.62,-1.65,-0.69,0.04
2026-06-21 23:17:59.199,-1.71,-0.14,-2.93,0.41
2026-06-21 23:17:59.200,-0.22,2.43,-1.07,0.77
2026-06-21 23:17:59.201,-1.64,-0.03,-2.12,0.5
2026-06-21 23:17:59.202,-0.1,-0.98,-0.31,0.7
2026-06-21 23:17:59.203,-2,-2.01,1.24,0.59
2026-06-21 23:17:59.204,0.13,-0.1,-1.17,0.65
2026-06-21 23:17:59.205,4.22,2.32,0.6,0.7
2026-06-21 23:17:59.206,1.54,-1.15,1.72,0.61
2026-06-21 23:17:59.207,0.7,-1.68,2.54,-0.81
2026-06-21 23:17:59.208,-1.58,0.5,1.43,-2.68
2026-06-21 23:17:59.209,-0.43,2.72,0.57,-1.48
2026-06-21 23:17:59.210,2.63,1.95,1.39,-1.42
2026-06-21 23:17:59.211,-0.06,0.19,-1.55,-2.19
2026-06-21 23:17:59.212,-2.32,0.26,-1.41,-0.1
2026-06-21 23:17:59.213,1.58,-0.79,0.19,0.8
2026-06-21 23:17:59.232,2.9,-0.28,-0.27,-0.24
2026-06-21 23:17:59.233,-2.95,-1.28,-0.16,0.6
2026-06-21 23:17:59.234,-2.54,-2.18,-1.1,1.24
2026-06-21 23:17:59.235,0.39,-2.02,-0.13,0.42
2026-06-21 23:17:59.236,-2.31,-0.03,1.81,-0.34
2026-06-21 23:17:59.237,-0.28,1.09,-0.01,0.25
2026-06-21 23:17:59.238,1.2,1.23,-0.84,0.51
2026-06-21 23:17:59.239,2.38,1.08,-0.74,0.13
2026-06-21 23:17:59.240,1.84,-1.07,-1.16,-1.05
2026-06-21 23:17:59.241,-0.52,-0.19,-0.62,0.11
2026-06-21 23:17:59.242,-0.1,0.14,0.95,2.17
2026-06-21 23:17:59.243,-0.26,0.32,0.17,0.83
2026-06-21 23:17:59.244,1.14,0.37,0.11,-0.01
2026-06-21 23:17:59.245,0.86,-0.14,0.9,1.59
2026-06-21 23:17:59.246,-0.07,0.78,-0.63,0.98
2026-06-21 23:17:59.247,0.7,-1.04,-1.41,-0.67
2026-06-21 23:17:59.248,-0.67,-0.8,0.34,0.47
2026-06-21 23:17:59.249,-1.52,1.75,1.12,0.18
2026-06-21 23:17:59.250,2.99,0.93,-0.99,-1.57
2026-06-21 23:17:59.251,2.58,-0.2,-0.94,-2.95
2026-06-21 23:17:59.252,-0.43,-0.5,1.7,-3.01
2026-06-21 23:17:59.253,0.94,1.17,0.98,-1.25
2026-06-21 23:17:59.254,1.66,-0.41,0.61,0.11
2026-06-21 23:17:59.255,-0.62,-1.25,1.34,0.5
2026-06-21 23:17:59.256,-1.89,1.31,0.21,0.72
2026-06-21 23:17:59.257,-2.55,-0.7,1.2,0.66
2026-06-21 23:17:59.258,-4.96,0.17,1.15,0.56
2026-06-21 23:17:59.259,-3.07,2.97,0.36,0.83
2026-06-21 23:17:59.260,-4.65,0.37,1.31,0.45
2026-06-21 23:17:59.261,-4.61,-0.9,-2.49,0.99
2026-06-21 23:17:59.262,3.12,-1.47,-3.11,0.41
2026-06-21 23:17:59.263,3.66,-3.09,1.61,-0.57
2026-06-21 23:17:59.264,-0.52,1.56,-1.61,0.59
2026-06-21 23:17:59.265,-0.92,0.73,-2.85,0.76
2026-06-21 23:17:59.266,1.79,-0.85,1.25,1.03
2026-06-21 23:17:59.267,3.86,3.18,0.21,0.33
2026-06-21 23:17:59.268,4.54,1.03,-1.11,-0.09
2026-06-21 23:17:59.269,1.28,-1.77,0.6,-0.01
2026-06-21 23:17:59.270,-2.26,0.46,1.32,-0.64
2026-06-21 23:17:59.271,-1.29,2.03,1.04,-0.88
2026-06-21 23:17:59.272,-3.85,0.15,0.54,-0.76
2026-06-21 23:17:59.273,-2.37,-0.58,-0.12,0.15
2026-06-21 23:17:59.274,1.46,0.92,-0.3,-0.45
2026-06-21 23:17:59.275,0.59,-0.36,-0.45,-0.15
2026-06-21 23:17:59.276,1.46,-0.19,-0.53,-0.35
2026-06-21 23:17:59.277,0.29,1.1,1.75,-1.31
2026-06-21 23:17:59.278,1.23,-0.44,0.45,-0.04
2026-06-21 23:17:59.279,1.28,1.06,-2.37,-1.37
2026-06-21 23:17:59.280,-0.36,0.59,0.65,-0.87
2026-06-21 23:17:59.281,2.24,-2.18,1.95,0.53
2026-06-21 23:17:59.264,-0.46,-1.66,0.24,0.07
2026-06-21 23:17:59.265,-2.96,0.8,0.69,0.8
2026-06-21 23:17:59.266,-0.5,-0.2,0.57,0.13
2026-06-21 23:17:59.267,-1,-0.1,0.36,-0.4
2026-06-21 23:17:59.268,-2.73,1,1.1,1.82
2026-06-21 23:17:59.269,-2.16,-1.15,0.82,2.48
2026-06-21 23:17:59.270,-1.19,-0.81,-0.52,0.29
2026-06-21 23:17:59.271,-1.58,0.82,-1.88,0.16
2026-06-21 23:17:59.272,-2.31,-1.1,-2.01,0.11
2026-06-21 23:17:59.273,-0.94,-0.2,-0.5,-0.24
2026-06-21 23:17:59.274,-0.66,0.88,-0.31,-0.1
2026-06-21 23:17:59.275,-1.18,1.22,-0.6,0.24
2026-06-21 23:17:59.276,0.79,0.66,-1.92,1.42
2026-06-21 23:17:59.277,0.5,-2.41,-1.42,0.6
2026-06-21 23:17:59.278,-0.21,-1.57,0.47,0.02
2026-06-21 23:17:59.279,-0.63,0,-0.8,0.86
2026-06-21 23:17:59.280,-1.41,0.32,-1.8,0.33
2026-06-21 23:17:59.281,-2.02,2.51,0.56,-1.37
2026-06-21 23:17:59.282,1.36,1.98,2.32,-2.53
2026-06-21 23:17:59.283,8.8,-0.33,0.33,-3.02
2026-06-21 23:17:59.284,6.47,1.23,1.1,-1.42
2026-06-21 23:17:59.285,-0.03,0.86,2.62,0.77
2026-06-21 23:17:59.286,-0.2,-1.18,0.71,0.26
2026-06-21 23:17:59.287,0.88,-1.68,-0.47,0.71
2026-06-21 23:17:59.288,-1.48,-0.7,0.2,0.03
2026-06-21 23:17:59.289,-1.14,-1.62,-0.02,-0.84
2026-06-21 23:17:59.290,1.49,-0.28,-1.12,0.6
2026-06-21 23:17:59.291,1.61,-1.55,-0.14,0.7
2026-06-21 23:17:59.292,0.04,-2.3,2.33,0.49
2026-06-21 23:17:59.293,0.34,2.92,0.5,0.59
2026-06-21 23:17:59.294,0.22,0.84,-1.22,0.42
2026-06-21 23:17:59.295,-0.18,-1.66,-0.55,0.5
2026-06-21 23:17:59.296,1.2,1.82,-0.85,0.36
2026-06-21 23:17:59.297,-2.75,0.5,-1.65,0.43
2026-06-21 23:17:59.298,-4.32,-0.33,1.13,0.32
2026-06-21 23:17:59.299,-3.21,0.61,0.05,-0.48
2026-06-21 23:17:59.300,-4.27,-0.56,-2.53,0.35
2026-06-21 23:17:59.301,-1.78,-1.01,0.17,0.09
2026-06-21 23:17:59.302,0.44,-0.72,1.28,-1.24
2026-06-21 23:17:59.303,-0.99,-1.24,0.46,-0.03
2026-06-21 23:17:59.304,1.01,-2.6,0.03,0.13
2026-06-21 23:17:59.305,4.02,0.24,-1.01,0.01
2026-06-21 23:17:59.306,5.93,2.32,-1.29,0.67
2026-06-21 23:17:59.307,4.48,1.12,0.62,-0.02
2026-06-21 23:17:59.308,3.23,-0.1,0.45,-0.26
2026-06-21 23:17:59.309,1.05,0.59,-1.08,-0.11
2026-06-21 23:17:59.310,-0.41,2.26,0.81,-0.31
2026-06-21 23:17:59.311,1.13,1.03,1.67,-0.2
2026-06-21 23:17:59.312,0.02,-0.03,-0.21,-0.33
2026-06-21 23:17:59.313,1.35,1.63,0.43,-0.31
2026-06-21 23:17:59.330,-2.22,-0.84,0.34,-0.34
2026-06-21 23:17:59.331,-6.88,-0.71,-0.77,-0.45
2026-06-21 23:17:59.332,-2.73,-0.07,0.23,-0.32
2026-06-21 23:17:59.333,0.84,-4.43,1.15,-0.65
2026-06-21 23:17:59.334,0.88,-1.06,0.14,-0.28
2026-06-21 23:17:59.335,3.27,2.4,-0.84,0.76
2026-06-21 23:17:59.336,0.9,-0.34,-0.03,-0.34
2026-06-21 23:17:59.337,-1.45,2.03,1.31,-0.88
2026-06-21 23:17:59.338,-0.77,0.61,0.48,0.34
2026-06-21 23:17:59.339,0.15,-3.03,-0.32,0.68
2026-06-21 23:17:59.340,0.02,-1.74,0.1,1.17
2026-06-21 23:17:59.341,-1.37,0.39,1.38,0.65
2026-06-21 23:17:59.342,-1.55,2.29,-0.3,-0.31
2026-06-21 23:17:59.343,-1.96,0.47,-3.29,-0.05
2026-06-21 23:17:59.344,0.99,-0.11,-1.25,0.63
2026-06-21 23:17:59.345,2.45,2.34,0.53,0.15
2026-06-21 23:17:59.346,1.88,1.16,-0.31,1.7
2026-06-21 23:17:59.347,2.61,-0.08,-2.11,1.96
2026-06-21 23:17:59.348,1.65,-1.02,0.02,-0.44
2026-06-21 23:17:59.349,0.03,-1.53,1.63,-0.76
2026-06-21 23:17:59.350,0.47,0.93,-0.45,-1.25
2026-06-21 23:17:59.351,-0.23,-0.02,0.23,-1.8
2026-06-21 23:17:59.352,0.07,0.04,1.21,-0.54
2026-06-21 23:17:59.353,-0.01,-0.38,0.83,0.16
2026-06-21 23:17:59.354,-0.39,-0.72,-1.26,-0.66
2026-06-21 23:17:59.355,-0.09,0.07,-1.57,-1.28
2026-06-21 23:17:59.356,-0.07,-0.85,0.25,0.07
2026-06-21 23:17:59.357,-0.42,-0.92,2.37,1.04
2026-06-21 23:17:59.358,-1.25,1.26,1.92,0.07
2026-06-21 23:17:59.359,-0.85,2.17,0.5,0.95
2026-06-21 23:17:59.360,-1.54,0.07,2.41,-0.01
2026-06-21 23:17:59.361,-1.21,-0.95,-0.33,-0.72
2026-06-21 23:17:59.362,-1.7,-0.41,-1.35,-0.01
2026-06-21 23:17:59.363,-1.47,0.02,0.14,-0.18
2026-06-21 23:17:59.364,-1.68,-0.81,-2.18,0.17
2026-06-21 23:17:59.365,-1.7,0.23,-1.45,0.17
2026-06-21 23:17:59.366,-1.44,1.35,-2.1,0.42
2026-06-21 23:17:59.367,-2.04,-0.5,-0.27,1.36
2026-06-21 23:17:59.368,-1.01,0.86,1.57,0.53
2026-06-21 23:17:59.369,-1.8,0.87,-0.73,-1.31
2026-06-21 23:17:59.370,1.16,-2.58,-0.2,-1.11
2026-06-21 23:17:59.371,7.51,-1.56,0.93,0.09
2026-06-21 23:17:59.372,5.45,1.86,0.56,1.07
2026-06-21 23:17:59.373,0.46,2.58,1.76,0.83
2026-06-21 23:17:59.374,1.4,0.67,-0.36,-0.11
2026-06-21 23:17:59.375,3.45,-0.28,-3.17,-0.7
2026-06-21 23:17:59.376,0.61,-1.59,-1.1,-0.55
2026-06-21 23:17:59.377,-0.57,0.32,0.15,-0.61
2026-06-21 23:17:59.378,3.1,1.51,0.76,-0.14
2026-06-21 23:17:59.379,0.9,-1.64,0.8,0.23
2026-06-21 23:17:59.373,,-0.77,0.08,0.43
2026-06-21 23:17:59.375,-2.71,-0.1,-0.08,0.21
2026-06-21 23:17:59.376,-4.23,-0.52,0.76,-0.44
2026-06-21 23:17:59.377,-3.59,-2.01,0.88,-0.63
2026-06-21 23:17:59.378,-2.22,-1.12,1.2,-1.22
2026-06-21 23:17:59.379,-1.3,0,0.62,-0.66
2026-06-21 23:17:59.380,-2.71,-2.89,-1.03,-0.37
2026-06-21 23:17:59.381,-2.31,0.08,0.08,0.92
2026-06-21 23:17:59.382,0.89,0.32,0.48,2.18
2026-06-21 23:17:59.383,1.08,0.55,-0.14,0.84
2026-06-21 23:17:59.384,1.64,4.51,1.42,-0.67
2026-06-21 23:17:59.385,2.5,-0.29,0.25,-0.03
2026-06-21 23:17:59.386,0.77,0,-0.27,0.47
2026-06-21 23:17:59.387,0.67,4.93,-0.42,0.83
2026-06-21 23:17:59.388,-1.31,-0.58,-0.82,0.79
2026-06-21 23:17:59.389,-4.59,-2.97,-1.27,0.98
2026-06-21 23:17:59.390,-3.72,-0.64,-2.06,1.13
2026-06-21 23:17:59.391,-5.67,0.14,0.26,
2026-06-21 23:17:59.392,-1.47,1.94,0.53,-1.3
2026-06-21 23:17:59.393,7.72,0.45,1.12,-1.64
2026-06-21 23:17:59.394,4.86,-0.98,1.44,-0.44
2026-06-21 23:17:59.395,-0.61,-0.93,0.37,-0.56
2026-06-21 23:17:59.396,-0.2,-2.61,-1.6,-1.06
2026-06-21 23:17:59.397,-0.54,-1.19,-1.17,-0.48
2026-06-21 23:17:59.398,0.89,-0.69,0.16,-0.06
2026-06-21 23:17:59.399,0.49,-1.25,0.43,-1.4
2026-06-21 23:17:59.400,1.72,2.1,1.34,-1.38
2026-06-21 23:17:59.401,3.36,2.64,0.27,0.76
2026-06-21 23:17:59.402,-0.44,0.35,2.05,0.32
2026-06-21 23:17:59.403,-1.32,-1.31,,-0.15
2026-06-21 23:17:59.404,0.7,-1.3,2.49,0.25
2026-06-21 23:17:59.405,-2.24,-1.17,-1.26,0.56
2026-06-21 23:17:59.406,-3.41,-0.42,-1.21,0.11
2026-06-21 23:17:59.407,-1.18,1.43,-1.06,0.5
2026-06-21 23:17:59.408,-0.52,1.23,-1.43,1.55
2026-06-21 23:17:59.409,1.45,0.1,-0.27,0.34
2026-06-21 23:17:59.410,0.38,-0.28,-0.19,-0.04
2026-06-21 23:17:59.411,0.14,0.31,-1.22,0.05
2026-06-21 23:17:59.412,2.07,-0.19,-1.56,-0.01
2026-06-21 23:17:59.413,2.77,-2.04,0.19,0.64
2026-06-21 23:17:59.414,0.81,-2.46,-0.16,-0.08
2026-06-21 23:17:59.415,-0.08,-0.57,-0.69,-1.08
2026-06-21 23:17:59.416,0.67,2.53,0.15,-0.99
2026-06-21 23:17:59.417,1.13,1.6,0.78,0.48
2026-06-21 23:17:59.418,0.08,0.51,0.37,1.3
2026-06-21 23:17:59.419,0.06,3.25,0.68,-0.37
2026-06-21 23:17:59.420,2.19,-0.17,0.6,-0.23
2026-06-21 23:17:59.421,1.33,0.03,-1.12,0.32
2026-06-21 23:17:59.422,1.34,2.27,-0.47,-0.1
2026-06-21 23:17:59.423,-1.58,-0.86,1.72,-0.49
2026-06-21 23:17:59.424,-1.38,-1.11,1.9,-0.86
2026-06-21 23:17:59.430,-0.54,-2.31,1.42,-0.41
2026-06-21 23:17:59.431,-9.22,-2.6,0.44,-0.97
2026-06-21 23:17:59.432,-9.58,-1.68,0.41,-0.25
2026-06-21 23:17:59.433,-1.56,0.59,-0.11,1.26
2026-06-21 23:17:59.434,2.81,-0.47,-1.4,-0.22
2026-06-21 23:17:59.435,5.79,-1.34,-1.42,-0.28
2026-06-21 23:17:59.436,4.1,1.77,-1.72,1.29
2026-06-21 23:17:59.437,4.74,2.4,0.48,0.6
2026-06-21 23:17:59.438,1.8,0.52,1.07,-0.3
2026-06-21 23:17:59.439,-2.18,-1.63,-1.89,-0.07
2026-06-21 23:17:59.440,-0.37,1.28,-1.39,-0.3
2026-06-21 23:17:59.441,3.03,1.94,0.1,0.2
2026-06-21 23:17:59.442,3.36,0.57,0.4,0.51
2026-06-21 23:17:59.443,0.4,2.72,0.43,0.48
2026-06-21 23:17:59.444,1.15,-0.87,-1.02,0.67
2026-06-21 23:17:59.445,0,-1.15,0.18,0.71
2026-06-21 23:17:59.446,0.18,0.23,0.67,0.2
2026-06-21 23:17:59.447,0.4,-1.48,-0.63,-1.6
2026-06-21 23:17:59.448,0.71,-0.28,0.07,-1.75
2026-06-21 23:17:59.449,0.17,-1.24,0.24,-0.9
2026-06-21 23:17:59.450,-0.82,-1.46,0.36,-0.59
2026-06-21 23:17:59.451,2.79,0.41,0.51,-0.2
2026-06-21 23:17:59.452,1.64,1.38,1.45,0.36
2026-06-21 23:17:59.453,-1.43,0.27,2.65,0.54
2026-06-21 23:17:59.454,1.53,-0.39,1.65,1.15
2026-06-21 23:17:59.455,1.14,-1.82,1.08,0.58
2026-06-21 23:17:59.456,-0.71,-0.33,0.98,0.21
2026-06-21 23:17:59.457,-1.39,1.49,1.99,0.8
2026-06-21 23:17:59.458,-0.41,-0.36,-0.55,-0.14
2026-06-21 23:17:59.459,-0.99,1.13,-3.73,-0.37
2026-06-21 23:17:59.460,-4,0.86,-1.9,0.21
2026-06-21 23:17:59.461,-3.86,-0.49,-3.09,0.84
2026-06-21 23:17:59.462,-1.2,0.55,-3.76,0.69
2026-06-21 23:17:59.463,-0.43,-0.56,0.28,0.3
2026-06-21 23:17:59.464,-1.54,-0.26,1.3,-0.2
2026-06-21 23:17:59.465,1.6,1,-0.37,-1.37
2026-06-21 23:17:59.466,2.75,1.47,-0.12,0.08
2026-06-21 23:17:59.467,1.48,-0.51,0.61,0.55
2026-06-21 23:17:59.468,1.63,-0.65,-0.95,-1.96
2026-06-21 23:17:59.469,0.44,1.37,0.44,-1.53
2026-06-21 23:17:59.470,0.78,0.28,1.9,-0.27
2026-06-21 23:17:59.471,1.7,-0.39,0.51,0.47
2026-06-21 23:17:59.472,0.68,-1.42,-0.05,0.45
2026-06-21 23:17:59.473,1.49,-0.43,-1.09,0.17
2026-06-21 23:17:59.474,1.13,2.53,0.53,0.22
2026-06-21 23:17:59.475,0.59,0.83,1.99,0.01
2026-06-21 23:17:59.476,0.78,-0.37,0.25,-0.09
2026-06-21 23:17:59.477,0.41,-0.67,-1.36,-0.01
2026-06-21 23:17:59.478,1.47,-0.77,0.77,-0.45
2026-06-21 23:17:59.479,0.94,0.98,2.34,0.1
2026-06-21 23:17:59.473,0.87,-1.43,0.52,0.83
2026-06-21 23:17:59.474,-0.09,-1.22,0.56,0.17
2026-06-21 23:17:59.475,-2.06,0.92,0.15,0.83
2026-06-21 23:17:59.476,0.06,0.41,-0.31,0.06
2026-06-21 23:17:59.477,0.35,1.11,-0.89,-0.47
2026-06-21 23:17:59.478,-1.96,-1.53,-2.09,0.76
2026-06-21 23:17:59.479,-2.94,-1.69,0.85,-0.19
2026-06-21 23:17:59.480,-1.74,0.47,0.68,0.06
2026-06-21 23:17:59.481,0.87,-0.01,-1.93,-0.01
2026-06-21 23:17:59.482,-0.3,0.44,-0.29,0.27
2026-06-21 23:17:59.483,-0.1,-0.45,-0.17,1.87
2026-06-21 23:17:59.484,-0.11,-1.74,-0.89,0.33
2026-06-21 23:17:59.485,-0.51,0.5,-0.93,-0.86
2026-06-21 23:17:59.486,0.79,0.78,-0.58,-0.46
2026-06-21 23:17:59.487,-0.68,-1.04,0.71,-0.48
2026-06-21 23:17:59.488,-0.59,0.98,-1.21,0.5
2026-06-21 23:17:59.489,-2.17,1.2,-1.58,1.34
2026-06-21 23:17:59.490,-0.3,0.37,0.46,-0.11
2026-06-21 23:17:59.491,-0.67,1.32,0.75,-0.87
2026-06-21 23:17:59.492,-6.84,0.09,-0.2,-1.57
2026-06-21 23:17:59.493,-5.78,0.44,0.64,-1.59
2026-06-21 23:17:59.494,-0.48,0.18,0.67,0.23
2026-06-21 23:17:59.495,0.9,-2.58,0.61,0.65
2026-06-21 23:17:59.496,1.2,-0.43,2.54,0.5
2026-06-21 23:17:59.497,2.32,-1.03,1.28,0.41
2026-06-21 23:17:59.498,3.05,0.91,-0.92,-0.97
2026-06-21 23:17:59.499,4.36,2.9,1.4,-0.5
2026-06-21 23:17:59.500,5.54,-1.03,1.93,-0.31
2026-06-21 23:17:59.501,4.27,-1.49,2.76,-0.55
2026-06-21 23:17:59.502,1.67,-0.79,2.43,1.09
2026-06-21 23:17:59.503,-4.97,-0.96,-4.03,0.86
2026-06-21 23:17:59.504,-7.27,0.52,-3.01,-0.72
2026-06-21 23:17:59.505,-5.83,1.76,-1.72,-0.11
2026-06-21 23:17:59.506,-7.55,0.52,-2.99,1.37
2026-06-21 23:17:59.507,-4.33,-1.29,-0.05,0.48
2026-06-21 23:17:59.508,-2.02,-0.79,-0.64,0.38
2026-06-21 23:17:59.509,1.4,0.2,-1.3,1.02
2026-06-21 23:17:59.510,2.44,-1.15,1.24,0.17
2026-06-21 23:17:59.511,3.32,-0.71,0.44,-0.74
2026-06-21 23:17:59.512,2.52,-0.84,0.75,-0.04
2026-06-21 23:17:59.513,-1.07,-0.77,2,-0.09
2026-06-21 23:17:59.514,-1.27,0.27,0.13,-0.19
2026-06-21 23:17:59.515,-0.57,0.76,-1.2,-0.2
2026-06-21 23:17:59.516,0.54,3.14,-0.48,-0.4
2026-06-21 23:17:59.517,1.82,3.19,-0.65,-0.16
2026-06-21 23:17:59.518,0.99,-1.21,1.66,-0.72
2026-06-21 23:17:59.519,0.34,-0.28,1.18,0.03
2026-06-21 23:17:59.520,-0.06,-0.32,-0.79,-0.32
2026-06-21 23:17:59.521,-0.01,-1.9,1.6,-2.22
2026-06-21 23:17:59.522,1.89,0.73,-1.17,-0.5
2026-06-21 23:17:59.531,3.77,0.84,-1.5,0.86
2026-06-21 23:17:59.532,1.71,0.53,2.37,-1.37
2026-06-21 23:17:59.533,-3.72,-0.77,1.65,-0.79
2026-06-21 23:17:59.534,-2.88,-2.06,-0.96,1.77
2026-06-21 23:17:59.535,-2.12,-2.59,-0.92,2.33
2026-06-21 23:17:59.536,-2.38,-0.83,-0.25,0.32
2026-06-21 23:17:59.537,0.12,0.29,-0.37,-0.08
2026-06-21 23:17:59.538,1.43,-0.79,-0.21,0.56
2026-06-21 23:17:59.539,-0.96,0.2,0.04,-0.07
2026-06-21 23:17:59.540,-2.12,0.31,0.72,0.22
2026-06-21 23:17:59.541,-0.61,0.42,1.27,0.73
2026-06-21 23:17:59.542,1.56,1.2,0.03,-0.11
2026-06-21 23:17:59.543,1.21,-0.16,0.34,0.14
2026-06-21 23:17:59.544,-0.17,0.68,1.71,0.24
2026-06-21 23:17:59.545,-0.29,0.68,0.35,0.52
2026-06-21 23:17:59.546,-0.22,0.42,-1.3,0.54
2026-06-21 23:17:59.547,0.46,0.67,-1.94,0.98
2026-06-21 23:17:59.548,1.32,0.25,-0.31,
2026-06-21 23:17:59.549,2.61,0.71,-0.17,0.82
2026-06-21 23:17:59.550,2.74,-1.57,-1.8,-2.74
2026-06-21 23:17:59.551,3.83,0.11,0.24,-2.72
2026-06-21 23:17:59.552,3.16,1.34,1.24,0.47
2026-06-21 23:17:59.553,0.87,-2.35,-0.87,0.77
2026-06-21 23:17:59.554,-0.53,-0.02,0.47,-2
2026-06-21 23:17:59.555,-0.75,2.68,0.94,-2.28
2026-06-21 23:17:59.556,0.52,0.4,0.71,-0.64
2026-06-21 23:17:59.557,1.48,-0.09,1.1,-0.82
2026-06-21 23:17:59.558,1.57,-0.21,0.9,0.05
2026-06-21 23:17:59.559,0.63,-0.21,2.17,1.15
2026-06-21 23:17:59.560,-0.5,0.7,,0.76
2026-06-21 23:17:59.561,0.16,-0.21,0.93,0.74
2026-06-21 23:17:59.562,1.6,-0.84,-2.36,0.63
2026-06-21 23:17:59.563,0.89,-0.83,-3.09,0.43
2026-06-21 23:17:59.564,-0.04,-1.81,0.16,0.5
2026-06-21 23:17:59.565,0.37,-0.37,-0.96,1.04
2026-06-21 23:17:59.566,0,1.05,-2.18,0.31
2026-06-21 23:17:59.567,0.11,-0.72,0.38,-0.61
2026-06-21 23:17:59.568,0.03,-0.68,-0.24,0.11
2026-06-21 23:17:59.569,-1.94,-0.52,0.56,0.12
2026-06-21 23:17:59.570,-3.18,0.23,1.38,-0.02
2026-06-21 23:17:59.571,-2.03,1.16,-0.84,0.04
2026-06-21 23:17:59.572,-0.21,0.42,0.89,-0.17
2026-06-21 23:17:59.573,0.62,1.32,1.49,0.86
2026-06-21 23:17:59.574,0.19,3.9,-0.15,1.28
2026-06-21 23:17:59.575,-0.29,2.24,-0.2,0.11
2026-06-21 23:17:59.576,-0.29,-0.43,-0.41,-0.33
2026-06-21 23:17:59.577,-3.03,0.09,-0.31,-0.71
2026-06-21 23:17:59.578,-0.56,-0.21,-0.67,-1.03
2026-06-21 23:17:59.579,7.4,0.64,-0.54,0.1
2026-06-21 23:17:59.580,6.31,-1.14,-0.13,-0.18
2026-06-21 23:17:59.572,,-2.77,-0.11,-1.47
2026-06-21 23:17:59.572,0.96,-0.54,0.47,-0.86
2026-06-21 23:17:59.573,-1.27,-0.18,0.21,0.09
2026-06-21 23:17:59.574,-1.76,-0.55,-0.5,0.11
2026-06-21 23:17:59.575,-2.07,-0.31,1.5,0.1
2026-06-21 23:17:59.576,-1.05,-0.56,0.79,0.26
2026-06-21 23:17:59.577,-1.23,1.07,-0.94,0.19
2026-06-21 23:17:59.578,-2.14,0.15,-0.21,0.42
2026-06-21 23:17:59.579,-1.03,-0.77,1.48,0.33
2026-06-21 23:17:59.580,-3.14,0.96,0.58,0.6
2026-06-21 23:17:59.581,-3.9,1.14,-1.63,0.55
2026-06-21 23:17:59.582,-2.38,0.33,-0.77,0.76
2026-06-21 23:17:59.583,0.19,-1.08,-0.09,0
2026-06-21 23:17:59.584,4.8,-1.18,-0.28,0.08
2026-06-21 23:17:59.585,3.93,0.77,-0.13,1.14
2026-06-21 23:17:59.586,1.85,1.02,-1.48,0.87
2026-06-21 23:17:59.587,2.57,0.43,-0.83,1.69
2026-06-21 23:17:59.588,-0.27,-1.12,0.37,0.68
2026-06-21 23:17:59.589,-0.78,-0.51,-0.75,-1.76
2026-06-21 23:17:59.590,0.39,2.24,-1.81,-2.65
2026-06-21 23:17:59.591,-1,0.85,-0.72,-0.66
2026-06-21 23:17:59.592,-1.61,-0.57,1.55,-0.37
2026-06-21 23:17:59.593,-0.48,-0.27,0.85,-1.47
2026-06-21 23:17:59.594,-1,-0.93,1.04,-0.27
2026-06-21 23:17:59.595,-1.41,-0.49,0.8,-1.27
2026-06-21 23:17:59.596,-1.16,-0.42,-0.28,-1.47
2026-06-21 23:17:59.597,-1.53,-1.58,0.22,1.15
2026-06-21 23:17:59.598,-1.43,1.25,0.62,0.31
2026-06-21 23:17:59.599,-2.51,3.61,1.56,0.66
2026-06-21 23:17:59.600,-1.13,-0.16,2.29,1
2026-06-21 23:17:59.601,0.47,-2.08,0.6,0.37
2026-06-21 23:17:59.602,-1.38,-0.83,-2.42,0.85
2026-06-21 23:17:59.603,-2.75,-1.35,-2.78,0.95
2026-06-21 23:17:59.604,-1.32,1.97,-0.72,0.67
2026-06-21 23:17:59.605,3.12,4.11,-0.06,0.02
2026-06-21 23:17:59.606,1.74,-0.17,0.33,0.49
2026-06-21 23:17:59.607,1.1,-1.97,0.73,0.69
2026-06-21 23:17:59.608,5.96,-0.22,-0.23,0.32
2026-06-21 23:17:59.609,1.08,-0.78,0.62,-0.22
2026-06-21 23:17:59.610,-1.45,-1.91,1.56,0.18
2026-06-21 23:17:59.611,-0.89,-1.21,-1.32,-0.37
2026-06-21 23:17:59.612,-1.11,0.27,-1.34,0.16
2026-06-21 23:17:59.613,0.75,-0.13,1.41,-0.58
2026-06-21 23:17:59.614,-0.98,-0.66,0.25,-3.12
2026-06-21 23:17:59.615,-0.16,-0.78,-0.35,-1.35
2026-06-21 23:17:59.616,-0.48,0.13,-0.15,1.4
2026-06-21 23:17:59.617,-0.67,2.58,-0.4,-0.48
2026-06-21 23:17:59.618,0.66,1.78,0.17,-0.27
2026-06-21 23:17:59.619,1.18,-1.21,0.33,0.31
2026-06-21 23:17:59.620,1.87,-2.01,0.53,-1.13
2026-06-21 23:17:59.621,1.14,-1.17,0.22,0.61
2026-06-21 23:17:59.630,2.5,-0.97,1.03,0.98
2026-06-21 23:17:59.631,-0.23,-1.23,-0.87,0.31
2026-06-21 23:17:59.632,-4.82,-0.84,-1.45,-0.03
2026-06-21 23:17:59.633,-1.72,1.04,1.26,-0.13
2026-06-21 23:17:59.634,1.8,3.21,-0.99,0.81
2026-06-21 23:17:59.635,1.53,1.69,-0.24,-0.07
2026-06-21 23:17:59.636,0.33,0.06,1.69,-0.46
2026-06-21 23:17:59.637,-1.82,0.02,-0.26,0.57
2026-06-21 23:17:59.638,-2.82,-0.93,0.82,-0.93
2026-06-21 23:17:59.639,-1.16,-1.41,0.12,-1.13
2026-06-21 23:17:59.640,-0.6,-0.54,-0.52,0.14
2026-06-21 23:17:59.641,0.43,1.25,0.49,0.35
2026-06-21 23:17:59.642,1.51,1.35,-1.21,0.49
2026-06-21 23:17:59.643,-0.49,-0.03,-0.39,1.97
2026-06-21 23:17:59.644,-1.03,-0.62,0.21,0.72
2026-06-21 23:17:59.645,0.88,0.19,0.58,-0.1
2026-06-21 23:17:59.646,1.16,-0.83,-0.01,0.97
2026-06-21 23:17:59.647,0.64,-1.29,-1.62,-0.62
2026-06-21 23:17:59.648,1.75,0.85,0.01,-1.82
2026-06-21 23:17:59.649,0.98,0.85,-0.03,-2.94
2026-06-21 23:17:59.650,1.65,-1.15,-0.48,-0.6
2026-06-21 23:17:59.651,2.85,0.51,1.61,0.96
2026-06-21 23:17:59.652,0.55,-0.92,1.4,-1.27
2026-06-21 23:17:59.653,-0.61,-1.31,0.25,1.12
2026-06-21 23:17:59.654,-0.82,-0.77,-0.68,1.51
2026-06-21 23:17:59.655,-0.74,-0.09,0.56,-0.99
2026-06-21 23:17:59.656,-0.64,1.94,2.13,0.34
2026-06-21 23:17:59.657,-0.86,0.02,-0.9,0.52
2026-06-21 23:17:59.658,-0.32,0.12,0.47,1.05
2026-06-21 23:17:59.659,-0.2,0.87,1.36,1.04
2026-06-21 23:17:59.660,-0.53,-0.21,-2.16,-0.59
2026-06-21 23:17:59.661,-1.14,-1.1,-2.5,0.03
2026-06-21 23:17:59.662,-1.26,-0.89,-2.23,0.92
2026-06-21 23:17:59.663,-1.27,0.6,-2.21,0.72
2026-06-21 23:17:59.664,-0.16,0.46,-0.22,0.95
2026-06-21 23:17:59.665,0.21,-0.46,0.35,0.62
2026-06-21 23:17:59.666,1.05,0.08,0.06,-1.45
2026-06-21 23:17:59.667,1.85,-0.66,1.36,-0.9
2026-06-21 23:17:59.668,-0.35,0.73,1.06,0.02
2026-06-21 23:17:59.669,-0.96,-0.25,-0.86,-1.69
2026-06-21 23:17:59.670,-0.48,0.11,-0.04,-0.8
2026-06-21 23:17:59.671,0.37,0.8,0.65,0.46
2026-06-21 23:17:59.672,0.03,0.36,-0.03,-0.07
2026-06-21 23:17:59.673,0.08,2,1.3,0.26
2026-06-21 23:17:59.674,2.26,0.43,0.82,0.5
2026-06-21 23:17:59.675,1.09,-0.63,1.2,-0.76
2026-06-21 23:17:59.676,-0.7,0.47,0.97,0.31
2026-06-21 23:17:59.677,-0.44,-0.29,-1.48,1.4
2026-06-21 23:17:59.678,-0.27,-0.92,-1.05,0.07
2026-06-21 23:17:59.679,0.52,-0.16,1.23,-0.22
2026-06-21 23:17:59.673,0.31,-1.61,0.85,-0.32
2026-06-21 23:17:59.674,0.82,-1.68,-0.79,-0.89
2026-06-21 23:17:59.675,0.99,0.05,0.25,-0.64
2026-06-21 23:17:59.676,0.43,-0.24,0.4,0.05
2026-06-21 23:17:59.677,1.01,1.12,-0.51,0.8
2026-06-21 23:17:59.678,-0.01,1.88,0.31,0.16
2026-06-21 23:17:59.679,-2.27,-1.93,0.81,-0.77
2026-06-21 23:17:59.680,-2.89,-0.42,-1.11,-0.53
2026-06-21 23:17:59.681,-3.64,1.9,-1.12,-0.66
2026-06-21 23:17:59.682,-1.02,-0.25,-0.84,0.44
2026-06-21 23:17:59.683,0.85,0.37,-0.69,1.09
2026-06-21 23:17:59.684,-0.25,1.27,-1.31,0.58
2026-06-21 23:17:59.685,2.14,0.5,-1.91,1.41
2026-06-21 23:17:59.686,1.56,-0.42,0.72,2.27
2026-06-21 23:17:59.687,1.25,-1.1,0.8,0.16
2026-06-21 23:17:59.688,0.78,-0.52,-0.47,0.97
2026-06-21 23:17:59.689,-1.38,0.34,0.6,0.33
2026-06-21 23:17:59.690,0.33,0.95,0.31,-1.94
2026-06-21 23:17:59.691,1.27,1.73,0.9,-1.79
2026-06-21 23:17:59.692,0.21,-0.08,0.75,-2.05
2026-06-21 23:17:59.693,0.76,-2.48,-1.02,-0.53
2026-06-21 23:17:59.694,0.98,-1.88,0.46,-0.08
2026-06-21 23:17:59.695,-0.47,0.42,0.88,-0.89
2026-06-21 23:17:59.696,-2.15,2.01,0.36,0.37
2026-06-21 23:17:59.697,0.06,-0.75,0.28,0.07
2026-06-21 23:17:59.698,1.8,-1.94,2.08,-1.34
2026-06-21 23:17:59.699,0.68,-0.25,1.98,-0.71
2026-06-21 23:17:59.700,0.2,1.26,0.88,0.22
2026-06-21 23:17:59.701,-0.39,2.22,3.06,1.65
2026-06-21 23:17:59.702,1.89,0.26,-0.48,0.24
2026-06-21 23:17:59.703,3.31,-0.53,-5.24,-0.85
2026-06-21 23:17:59.704,-0.61,-0.06,-2.51,0.38
2026-06-21 23:17:59.705,-1.49,0.84,0.5,0.39
2026-06-21 23:17:59.706,-0.24,-0.36,-0.48,-0.16
2026-06-21 23:17:59.707,-0.68,-1.95,-1.05,0.73
2026-06-21 23:17:59.708,-0.56,1.25,-0.25,0.76
2026-06-21 23:17:59.709,-0.89,1.11,-0.32,0.35
2026-06-21 23:17:59.710,0.11,-0.74,-0.07,0.77
2026-06-21 23:17:59.711,0.37,0.81,-0.52,0.01
2026-06-21 23:17:59.712,-0.65,0.38,-0.89,-0.07
2026-06-21 23:17:59.713,-0.67,-0.96,1.79,-0.2
2026-06-21 23:17:59.714,-0.57,0.75,1.94,-1.09
2026-06-21 23:17:59.715,-1.63,2.1,0.26,-0.09
2026-06-21 23:17:59.716,-0.36,1.11,-0.96,-0.75
2026-06-21 23:17:59.717,1.49,0.73,-0.58,-3.01
2026-06-21 23:17:59.718,-0.3,-0.37,0.2,-1.07
2026-06-21 23:17:59.719,-1.52,-0.28,-0.87,0.3
2026-06-21 23:17:59.720,-0.45,0.41,1.73,-0.37
2026-06-21 23:17:59.721,-1.39,-1.28,0.79,-0.38
2026-06-21 23:17:59.722,0.25,-3.66,-1.25,-0.38
2026-06-21 23:17:59.730,3.59,-2.45,1.84,0.56
2026-06-21 23:17:59.731,1.5,-0.69,1.04,1.38
2026-06-21 23:17:59.732,0.65,-0.81,-0.6,0.64
2026-06-21 23:17:59.733,2.71,0.85,-0.84,0.13
2026-06-21 23:17:59.734,-0.02,1.91,-0.49,0.66
2026-06-21 23:17:59.735,-1.26,0.11,-0.3,0.53
2026-06-21 23:17:59.736,-0.95,0.5,-0.36,0.76
2026-06-21 23:17:59.737,-1.16,0.1,0.33,0.89
2026-06-21 23:17:59.738,-0.2,0.7,-0.41,0.94
2026-06-21 23:17:59.739,-0.38,0.91,0.42,1.27
2026-06-21 23:17:59.740,-0.08,-0.81,-0.73,1.22
2026-06-21 23:17:59.741,-0.52,1.17,-1.76,0.89
2026-06-21 23:17:59.742,-0.6,0.69,-0.25,0.03
2026-06-21 23:17:59.743,-0.66,-0.86,-0.15,2.28
2026-06-21 23:17:59.744,-1.14,0.94,0.5,1.23
2026-06-21 23:17:59.745,-1.56,0.7,0.43,-0.21
2026-06-21 23:17:59.746,-0.17,-2.36,-0.99,0.27
2026-06-21 23:17:59.747,-0.09,-0.27,-1.4,-1.5
2026-06-21 23:17:59.748,0.66,0.85,0.02,-2.79
2026-06-21 23:17:59.749,2.31,-0.63,1.66,-4.12
2026-06-21 23:17:59.750,1.14,0.5,1.09,-0.98
2026-06-21 23:17:59.751,-0.63,-0.66,-0.67,-1.7
2026-06-21 23:17:59.752,-0.22,-2,0.68,-6.14
2026-06-21 23:17:59.753,-0.41,1.86,1.96,-3.12
2026-06-21 23:17:59.754,-0.01,0.63,0.25,-0.23
2026-06-21 23:17:59.755,0.53,-0.69,1.88,0.61
2026-06-21 23:17:59.756,-0.66,0.56,1.97,1.78
2026-06-21 23:17:59.757,-0.95,-0.79,-1.22,2.03
2026-06-21 23:17:59.758,-1.26,-1.03,1.58,3.75
2026-06-21 23:17:59.759,-0.94,-0.87,2.5,3.55
2026-06-21 23:17:59.760,0.04,-0.27,-2.76,3.67
2026-06-21 23:17:59.761,-0.35,-0.05,-4.19,1.89
2026-06-21 23:17:59.762,-1.5,2.19,-1.82,0.87
2026-06-21 23:17:59.763,1.89,2.46,0.03,1.1
2026-06-21 23:17:59.764,3.65,-0.08,-1,-0.92
2026-06-21 23:17:59.765,-0.69,-0.32,-1.67,-1.12
2026-06-21 23:17:59.766,-1.31,-0.02,-0.25,-1.06
2026-06-21 23:17:59.767,2.29,0.28,-0.53,0.67
2026-06-21 23:17:59.768,-0.75,0.11,-0.15,0.51
2026-06-21 23:17:59.769,-1.45,-1.66,1.28,-2.55
2026-06-21 23:17:59.770,-0.62,-2.86,1.51,0.1
2026-06-21 23:17:59.771,-1.21,-0.61,1.7,0.15
2026-06-21 23:17:59.772,-0.47,1.38,0.63,-2.56
2026-06-21 23:17:59.773,0.35,0.99,0.02,0.69
2026-06-21 23:17:59.774,0.52,2.7,-0.39,0.62
2026-06-21 23:17:59.775,-1.53,0.57,0.1,0.16
2026-06-21 23:17:59.776,2.65,-1.38,1.75,1.16
2026-06-21 23:17:59.777,3.62,-0.64,0.05,1.35
2026-06-21 23:17:59.778,1.8,-1.88,-0.81,1
2026-06-21 23:17:59.779,5.31,-0.59,-0.18,0.15
2026-06-21 23:17:59.774,1.17,0.2,0.56,1.08
2026-06-21 23:17:59.775,-3.4,-0.26,1.16,-2.16
2026-06-21 23:17:59.776,-2.05,-0.38,0.17,-4.99
2026-06-21 23:17:59.777,-2.54,-0.71,0.16,-3.07
2026-06-21 23:17:59.778,-0.19,0.68,-0.32,-2.57
2026-06-21 23:17:59.779,0.28,0.27,-1.68,-1.53
2026-06-21 23:17:59.780,0.14,0.38,-1.51,1.29
2026-06-21 23:17:59.781,0.46,1.92,0.4,1.46
2026-06-21 23:17:59.782,-1.37,0.99,0.62,1.28
2026-06-21 23:17:59.783,-1.86,0.35,-0.7,1.32
2026-06-21 23:17:59.784,-1.63,0.98,0.66,1.29
2026-06-21 23:17:59.785,-2.07,-0.7,0.51,1.45
2026-06-21 23:17:59.786,-0.46,-1.16,-0.61,1.29
2026-06-21 23:17:59.787,1.39,0.47,-0.51,1.87
2026-06-21 23:17:59.788,2.17,0.59,-0.34,1.23
2026-06-21 23:17:59.789,3.27,0.14,-0.45,2.6
2026-06-21 23:17:59.790,1.42,-1.12,-1.91,1.07
2026-06-21 23:17:59.791,0.59,0.83,0.78,-3.16
2026-06-21 23:17:59.792,2.38,0.87,0.92,-1.13
2026-06-21 23:17:59.793,-0.64,-1.53,-1.06,1.73
2026-06-21 23:17:59.794,-1.03,-0.24,0.72,0.08
2026-06-21 23:17:59.795,1.28,-0.12,1.51,-0.76
2026-06-21 23:17:59.796,-0.55,-0.32,0.89,-0.33
2026-06-21 23:17:59.797,0.45,-0.36,-1.05,-0.28
2026-06-21 23:17:59.798,0.42,-0.37,-0.19,-0.69
2026-06-21 23:17:59.799,0.66,-0.51,0.12,-1.54
2026-06-21 23:17:59.800,0.63,0.42,1.4,-1.97
2026-06-21 23:17:59.801,-0.94,0.22,2.29,1.35
2026-06-21 23:17:59.802,-0.42,-0.42,-1.24,0.33
2026-06-21 23:17:59.803,-0.6,-0.47,-0.66,-1.91
2026-06-21 23:17:59.804,0.48,-2.33,-0.4,1.83
2026-06-21 23:17:59.805,0.16,0,-1.47,0.9
2026-06-21 23:17:59.806,-1.74,1.04,-0.45,-0.42
2026-06-21 23:17:59.807,-0.65,0.53,-0.74,1.31
2026-06-21 23:17:59.808,-1.12,3.12,0.41,0.18
2026-06-21 23:17:59.809,-0.35,0.57,-0.27,-1.24
2026-06-21 23:17:59.810,0.96,-1.39,-1.03,-1.13
2026-06-21 23:17:59.811,-1.59,0.35,0.01,-1.49
2026-06-21 23:17:59.812,-1.03,-0.24,-0.22,0.73
2026-06-21 23:17:59.813,1.38,1.14,1.02,0.39
2026-06-21 23:17:59.814,0.28,-0.87,1.25,-1.44
2026-06-21 23:17:59.815,0.74,-1.91,0.22,-0.05
2026-06-21 23:17:59.816,-0.28,0.17,0.4,0.17
2026-06-21 23:17:59.817,-1.37,-0.38,-0.97,-0.3
2026-06-21 23:17:59.818,1.08,-0.9,-0.27,1.13
2026-06-21 23:17:59.819,1.26,1.08,1.65,1.03
2026-06-21 23:17:59.820,1.39,0.38,-0.32,1.73
2026-06-21 23:17:59.821,1.98,0.36,-0.25,2.51
2026-06-21 23:17:59.822,1.17,1.66,0.14,0.15
2026-06-21 23:17:59.823,0.28,-1.33,-1.22,-2.11
2026-06-21 23:17:59.830,1.08,1.73,-1.79,-3.79
2026-06-21 23:17:59.831,0.07,2.32,0.3,-3.44
2026-06-21 23:17:59.832,-2.42,-2.39,1.88,-1.3
2026-06-21 23:17:59.833,-3.37,-2.39,0.22,-0.1
2026-06-21 23:17:59.834,-2.28,-0.92,1.04,-0.4
2026-06-21 23:17:59.835,-0.06,0.52,0.76,1.64
2026-06-21 23:17:59.836,-0.27,0.01,-0.4,2.04
2026-06-21 23:17:59.837,-1.55,-0.44,-0.22,1.89
2026-06-21 23:17:59.838,-0.95,0.75,-0.41,2.32
2026-06-21 23:17:59.839,0.42,-0.05,-1.1,1.22
2026-06-21 23:17:59.840,0.86,0.21,-1.44,1.43
2026-06-21 23:17:59.841,-0.25,-1.77,-0.32,0.42
2026-06-21 23:17:59.842,0.44,-2.33,-0.36,-1.65
2026-06-21 23:17:59.843,-1.96,1.86,-0.24,0.63
2026-06-21 23:17:59.844,-1.24,3.26,-0.18,2.32
2026-06-21 23:17:59.845,1.83,0.66,0.65,1.08
2026-06-21 23:17:59.846,-0.43,0.36,2.76,3.27
2026-06-21 23:17:59.847,0.23,0.13,1.38,4.82
2026-06-21 23:17:59.848,-0.1,-0.86,-1.24,0.94
2026-06-21 23:17:59.849,2.06,0.7,-0.25,-4.8
2026-06-21 23:17:59.850,2.57,-0.12,1.53,-6.64
2026-06-21 23:17:59.851,-1.27,0.95,0.57,-10.14
2026-06-21 23:17:59.852,-0.71,1,-0.15,-9.84
2026-06-21 23:17:59.853,-0.2,-1.91,-1.01,-1.17
2026-06-21 23:17:59.854,-1.26,-1.03,-2.65,2
2026-06-21 23:17:59.855,-1.94,0.55,0.95,2.1
2026-06-21 23:17:59.856,-1.02,-0.63,2.47,3.85
2026-06-21 23:17:59.857,-0.27,-1.93,0.75,1.71
2026-06-21 23:17:59.858,1.6,-0.95,1.19,1.43
2026-06-21 23:17:59.859,3.29,0.15,1.18,0.92
2026-06-21 23:17:59.860,-0.94,-1.1,-0.92,-0.65
2026-06-21 23:17:59.861,-1.06,-0.17,-2.5,0.09
2026-06-21 23:17:59.862,0.98,2.11,-1.53,1.38
2026-06-21 23:17:59.863,-2.02,0.21,-0.94,0.91
2026-06-21 23:17:59.864,-2.52,-0.66,-0.59,0.34
2026-06-21 23:17:59.865,0.32,-0.19,-0.43,3.69
2026-06-21 23:17:59.866,-0.18,-1.03,0.28,3.17
2026-06-21 23:17:59.867,-0.77,1.48,0.82,0.59
2026-06-21 23:17:59.868,0.7,0.65,1.1,0.54
2026-06-21 23:17:59.869,1.09,-0.39,-0.27,-0.01
2026-06-21 23:17:59.870,2.94,0.64,-0.5,-0.2
2026-06-21 23:17:59.871,-0.14,0.9,1.27,0.27
2026-06-21 23:17:59.872,-3.37,1.66,-0.82,-0.07
2026-06-21 23:17:59.873,0.19,-0.49,-2.44,0.64
2026-06-21 23:17:59.874,-1.29,2.33,0.32,-0.75
2026-06-21 23:17:59.875,-2.35,4.24,0.05,-3.89
2026-06-21 23:17:59.876,0.54,2.34,0.02,-3.69
2026-06-21 23:17:59.877,1.76,-0.45,2.44,-2.4
2026-06-21 23:17:59.878,4.85,-3.6,1.13,-1.8
2026-06-21 23:17:59.879,5.99,-1.53,-1.55,-1.06
2026-06-21 23:17:59.896,3.67,-3.02,-0.93,-0.83
2026-06-21 23:17:59.897,-0.65,-3.1,-0.26,-0.5
2026-06-21 23:17:59.898,-3.24,1.32,-0.48,-0.74
2026-06-21 23:17:59.899,-2.95,0.47,0.08,0.26
2026-06-21 23:17:59.900,-2.29,-1.17,0.77,0.91
2026-06-21 23:17:59.901,-2.1,-1.21,2.08,0.42
2026-06-21 23:17:59.902,-1.62,-1.96,0.44,1.13
2026-06-21 23:17:59.903,-1.63,-1.51,-0.48,-1.04
2026-06-21 23:17:59.904,-0.26,0.57,0.27,-1.63
2026-06-21 23:17:59.905,0.79,1.06,-0.61,-0.01
2026-06-21 23:17:59.906,-0.61,0.79,-1.17,3.66
2026-06-21 23:17:59.907,1.46,1.13,-0.7,7.91
2026-06-21 23:17:59.908,0.52,1.7,-0.07,3.94
2026-06-21 23:17:59.909,-1.27,-0.35,0.15,-0.62
2026-06-21 23:17:59.910,1.83,-1.61,0.3,2.77
2026-06-21 23:17:59.911,1.09,1.67,0.34,3.6
2026-06-21 23:17:59.912,-0.49,1.69,0.66,3.66
2026-06-21 23:17:59.913,-0.96,-0.69,0.67,
2026-06-21 23:17:59.914,-2.87,0.84,-0.72,6.28
2026-06-21 23:17:59.915,-1.8,0.09,-1.28,1.92
2026-06-21 23:17:59.916,0.94,-0.64,0.15,-5.51
2026-06-21 23:17:59.917,2.65,0.15,1.55,-8.1
2026-06-21 23:17:59.918,1.21,-0.51,0.09,-8.31
2026-06-21 23:17:59.919,0.3,0.44,-1.26,-7.97
2026-06-21 23:17:59.920,0.56,2.26,-0.77,-5.44
2026-06-21 23:17:59.921,0.65,0.66,-1.12,-2.74
2026-06-21 23:17:59.922,2.58,-0.85,0.24,-1.45
2026-06-21 23:17:59.923,-0.77,0.01,2.02,0.57
2026-06-21 23:17:59.924,-2.28,-0.54,1.38,2.18
2026-06-21 23:17:59.925,0.93,-0.59,,0.53
2026-06-21 23:17:59.926,-1.5,-0.95,1.3,0.46
2026-06-21 23:17:59.927,-3.67,0.37,1,1.18
2026-06-21 23:17:59.928,-0.81,-0.64,-0.95,5.54
2026-06-21 23:17:59.929,-0.44,-1.96,-2.51,10.17
2026-06-21 23:17:59.930,1.09,-1.13,-1.56,5.05
2026-06-21 23:17:59.931,1.72,0.23,0.22,1.21
2026-06-21 23:17:59.932,-0.97,2.52,0.17,1.36
2026-06-21 23:17:59.933,0.35,0.56,0.41,-1.3
2026-06-21 23:17:59.934,-0.92,-1.77,1.03,-1.2
2026-06-21 23:17:59.935,-2.28,-0.59,-1.34,-0.18
2026-06-21 23:17:59.936,-0.83,1.72,-2.06,-1.48
2026-06-21 23:17:59.937,0.91,0.15,0.66,-0.67
2026-06-21 23:17:59.938,1.12,-0.51,0.12,-0.44
2026-06-21 23:17:59.939,-1.85,2.97,0.35,-1.14
2026-06-21 23:17:59.940,-1.44,1.61,1.26,-0.07
2026-06-21 23:17:59.941,1.83,-0.76,-0.07,-0.03
2026-06-21 23:17:59.942,2.75,0.43,0.14,-0.2
2026-06-21 23:17:59.943,2.32,-1.45,0.18,-1.13
2026-06-21 23:17:59.944,0.32,-0.35,0.75,-3.39
2026-06-21 23:17:59.945,0.44,-0.2,0.51,-2.64
2026-06-21 23:17:59.934,,-1.84,-1.03,-2.66
2026-06-21 23:17:59.932,1.09,-1.61,0.38,-4.8
2026-06-21 23:17:59.933,-0.59,-1.16,1.04,-2.56
2026-06-21 23:17:59.934,-1.35,-0.02,-0.29,2.54
2026-06-21 23:17:59.935,-1.03,-1.57,0.04,4.78
2026-06-21 23:17:59.936,-0.79,1.57,-0.19,1.06
2026-06-21 23:17:59.937,-0.77,1.72,0,0.33
2026-06-21 23:17:59.938,-0.47,-0.15,-0.12,1.9
2026-06-21 23:17:59.939,0.23,2.21,-0.85,0.53
2026-06-21 23:17:59.940,-0.39,1.56,-0.03,0.64
2026-06-21 23:17:59.941,-0.35,-0.72,-1.08,-0.5
2026-06-21 23:17:59.942,0.37,-0.07,-0.69,-0.46
2026-06-21 23:17:59.943,0.6,0.47,0.22,1.63
2026-06-21 23:17:59.944,0.38,0.01,-0.77,0.71
2026-06-21 23:17:59.945,-0.21,-2.4,0.2,0.12
2026-06-21 23:17:59.946,-0.32,-2.08,0.47,1.89
2026-06-21 23:17:59.947,-0.45,0.12,0.47,4.66
2026-06-21 23:17:59.948,-0.17,1.66,1.77,5.73
2026-06-21 23:17:59.949,-0.1,0.88,0.77,3.28
2026-06-21 23:17:59.950,0.74,-0.01,0.23,0.29
2026-06-21 23:17:59.951,1.75,3.29,-0.53,-4.35
2026-06-21 23:17:59.952,1.49,-0.3,-1.92,-7.61
2026-06-21 23:17:59.953,1.32,-3.69,-0.92,-8.34
2026-06-21 23:17:59.954,2.09,-0.48,-0.87,-10.49
2026-06-21 23:17:59.955,1.82,2.54,-0.47,-7.04
2026-06-21 23:17:59.956,-0.66,1.21,0.24,2.05
2026-06-21 23:17:59.957,-1.48,-1.02,-0.19,3.84
2026-06-21 23:17:59.958,-1.22,-0.1,0.76,3.26
2026-06-21 23:17:59.959,-1.55,1.7,2.32,2.89
2026-06-21 23:17:59.960,-0.9,-1.38,2.14,1.88
2026-06-21 23:17:59.961,-1.01,-3.39,1.66,1.19
2026-06-21 23:17:59.962,1.32,-1.96,-0.62,-0.54
2026-06-21 23:17:59.963,0.11,-0.45,-2.19,1.41
2026-06-21 23:17:59.964,-0.11,0.74,-1.95,1.57
2026-06-21 23:17:59.965,3.98,-1.52,-0.57,0.34
2026-06-21 23:17:59.966,1.44,0.39,0.58,2.36
2026-06-21 23:17:59.967,-2.14,2.33,0.11,2.48
2026-06-21 23:17:59.968,-1.07,-0.15,0.7,0.48
2026-06-21 23:17:59.969,-0.15,-0.41,1.53,0.03
2026-06-21 23:17:59.970,1.4,1.3,-0.88,-0.27
2026-06-21 23:17:59.971,1.8,0.35,-0.84,1.02
2026-06-21 23:17:59.972,-1,0.29,2.33,0.87
2026-06-21 23:17:59.973,-0.93,0.33,-0.2,1.31
2026-06-21 23:17:59.974,0.48,1.67,-1.35,1.44
2026-06-21 23:17:59.975,-0.64,3.53,-0.54,1.5
2026-06-21 23:17:59.976,-1.06,-0.3,-0.38,1.45
2026-06-21 23:17:59.977,-1.51,-2.85,0.11,1.48
2026-06-21 23:17:59.978,-0.86,-1.4,0.23,2.39
2026-06-21 23:17:59.979,-0.97,-1.79,-0.75,-2.2
2026-06-21 23:17:59.980,1.05,-2.09,0.6,-3
2026-06-21 23:17:59.981,5.46,-1.29,1.62,-3.89
2026-06-21 23:17:59.997,3.68,-0.16,-0.12,-7.6
2026-06-21 23:17:59.998,-0.56,1.41,0.2,-1
2026-06-21 23:17:59.999,-2.8,0.22,0.48,2.72
2026-06-21 23:18:00.000,-3.11,1.12,0.4,0.02
2026-06-21 23:18:00.001,-1.21,1.32,1.23,1.65
2026-06-21 23:18:00.002,-0.14,0.27,0.32,0.1
2026-06-21 23:18:00.003,-0.53,0.89,-1.66,-0.58
2026-06-21 23:18:00.004,-0.54,1.1,-1.61,-2.25
2026-06-21 23:18:00.005,-0.77,-0.45,-1.05,-1.68
2026-06-21 23:18:00.006,1.33,-1.97,-0.55,-1.46
2026-06-21 23:18:00.007,2.14,0.44,0.72,0.6
2026-06-21 23:18:00.008,0.52,1.23,2.02,3.43
2026-06-21 23:18:00.009,-0.33,-0.5,1.12,1.88
2026-06-21 23:18:00.010,0.96,0.54,-0.02,0.65
2026-06-21 23:18:00.011,1.37,0.51,-0.01,-0.36
2026-06-21 23:18:00.012,-0.45,-0.93,-0.24,1.21
2026-06-21 23:18:00.013,-1.6,-0.1,-1.28,-4.72
2026-06-21 23:18:00.014,-0.39,-1.13,0.72,-10.59
2026-06-21 23:18:00.015,0.16,-0.46,0.22,-5.06
2026-06-21 23:18:00.016,-0.22,0.89,-2.08,4.96
2026-06-21 23:18:00.017,0.2,-0.76,0.05,11.31
2026-06-21 23:18:00.018,0.96,-0.08,-0.37,10.62
2026-06-21 23:18:00.019,0.91,-0.3,0.92,6.08
2026-06-21 23:18:00.020,-0.79,-0.06,1.15,3.57
2026-06-21 23:18:00.021,-0.9,-0.46,-0.65,-4.32
2026-06-21 23:18:00.022,0.92,1.67,0.52,-7.53
2026-06-21 23:18:00.023,1.93,1.99,-0.07,0.22
2026-06-21 23:18:00.024,-0.44,-2.44,1.05,-1.36
2026-06-21 23:18:00.025,-1.66,-0.52,0.42,-6.1
2026-06-21 23:18:00.026,-1.07,0.87,0.08,-1.25
2026-06-21 23:18:00.027,-0.52,-1.26,2.09,1.87
2026-06-21 23:18:00.028,-0.18,0.31,-2.2,3.7
2026-06-21 23:18:00.029,0.63,1.52,-1.88,3.6
2026-06-21 23:18:00.030,0.51,0.84,1.46,0.08
2026-06-21 23:18:00.031,0.33,0.82,-1.11,-4.67
2026-06-21 23:18:00.032,-0.57,-0.05,-0.99,-8.8
2026-06-21 23:18:00.033,-3.13,-0.96,0,-5.13
2026-06-21 23:18:00.034,0.11,-0.62,-1.02,-0.8
2026-06-21 23:18:00.035,0.55,0.22,-1.54,-0.97
2026-06-21 23:18:00.036,-1.52,-0.15,0.56,-1.54
2026-06-21 23:18:00.037,2.21,-0.16,-0.33,-0.03
2026-06-21 23:18:00.038,2.98,0.42,-0.98,0.45
2026-06-21 23:18:00.039,0.3,2.16,1.56,2.16
2026-06-21 23:18:00.040,0.25,0.93,1.15,5.86
2026-06-21 23:18:00.041,-0.75,0.13,0.54,8.92
2026-06-21 23:18:00.042,1.27,1.4,-0.19,9.51
2026-06-21 23:18:00.043,4.69,-1.88,0.52,5.49
2026-06-21 23:18:00.044,0.69,-3.68,-0.04,1.21
2026-06-21 23:18:00.045,-0.17,-2.38,-1,-5.08
2026-06-21 23:18:00.046,2.63,-1.17,-0.53,-10.67
2026-06-21 23:18:00.042,-1.4,1.19,-1.13,-10.48
2026-06-21 23:18:00.043,-3.12,1.65,0.17,-5.05
2026-06-21 23:18:00.044,-1.62,-1.84,0.05,1.46
2026-06-21 23:18:00.045,-3.44,-1.18,-0.43,0.57
2026-06-21 23:18:00.046,-1,1.19,1.25,-0.41
2026-06-21 23:18:00.047,0.48,-0.12,0.5,1.74
2026-06-21 23:18:00.048,-1.27,1.13,0.34,6.67
2026-06-21 23:18:00.049,-0.46,1.6,0.54,6.99
2026-06-21 23:18:00.050,-1.03,-0.61,0.35,2.47
2026-06-21 23:18:00.051,-0.56,1.43,-0.26,0.46
2026-06-21 23:18:00.052,0.87,0.48,0.47,0.7
2026-06-21 23:18:00.053,-0.92,-1.47,-0.36,0.89
2026-06-21 23:18:00.054,0,0.95,-0.14,-1.96
2026-06-21 23:18:00.055,0.81,0.28,0.39,-2.31
2026-06-21 23:18:00.056,-0.75,-0.52,-1.82,-4.9
2026-06-21 23:18:00.057,1.17,-2.18,-1.71,-1.3
2026-06-21 23:18:00.058,-0.24,-0.98,-2.31,-1.56
2026-06-21 23:18:00.059,-1.42,3.38,-1.12,-8.24
2026-06-21 23:18:00.060,2.79,1.53,2.92,3.05
2026-06-21 23:18:00.061,3.9,-2.05,2.56,8.34
2026-06-21 23:18:00.062,0.13,-0.05,0.37,3.04
2026-06-21 23:18:00.063,-1.28,0.25,-0.21,2.33
2026-06-21 23:18:00.064,-1,-1.68,-0.19,-0.75
2026-06-21 23:18:00.065,0.09,0.25,0.23,-1.26
2026-06-21 23:18:00.066,0.4,0.24,0.29,-2.14
2026-06-21 23:18:00.067,-1.05,-0.38,1.43,-1.18
2026-06-21 23:18:00.068,-0.59,-0.3,0.84,-1.2
2026-06-21 23:18:00.069,-1.6,0.53,0.18,-4.26
2026-06-21 23:18:00.070,-2.02,1.87,-0.2,-2.2
2026-06-21 23:18:00.071,-1.3,-0.37,0.41,-0.49
2026-06-21 23:18:00.072,-1.06,-1.02,-0.56,-0.87
2026-06-21 23:18:00.073,-0.57,0.21,-1.96,1.71
2026-06-21 23:18:00.074,-1.01,0.36,-2.71,5.54
2026-06-21 23:18:00.075,-1.27,-0.67,-0.54,2.19
2026-06-21 23:18:00.076,0.75,-0.57,1.38,-0.19
2026-06-21 23:18:00.077,1.69,0.21,-0.15,-0.61
2026-06-21 23:18:00.078,0.88,-0.09,-0.05,0.3
2026-06-21 23:18:00.079,0.83,0.62,0.01,2.53
2026-06-21 23:18:00.080,-0.77,-0.87,0.17,-0.01
2026-06-21 23:18:00.081,-0.76,-0.28,0.3,-0.16
2026-06-21 23:18:00.082,-0.69,2.06,0.25,0.26
2026-06-21 23:18:00.083,-0.05,1.9,-0.77,0.59
2026-06-21 23:18:00.084,2.22,1.08,-1.49,0.49
2026-06-21 23:18:00.085,0.94,0.57,0.08,0.43
2026-06-21 23:18:00.086,0.69,1.08,-0.41,-3.48
2026-06-21 23:18:00.087,-0.08,-2.02,-1.21,-9.97
2026-06-21 23:18:00.088,-0.45,-1.75,0.55,-5.69
2026-06-21 23:18:00.089,0.57,0.65,1.35,-4.55
2026-06-21 23:18:00.090,1.51,0.16,0.88,-4.67
2026-06-21 23:18:00.091,2.6,-0.47,0.5,-1.05
2026-06-21 23:18:00.097,-0.16,-0.59,1.45,0.53
2026-06-21 23:18:00.098,-2.12,1.19,0.96,5.8
2026-06-21 23:18:00.099,-3.13,-1.76,0.78,7.04
2026-06-21 23:18:00.100,-4.11,-2.27,-0.43,6.51
2026-06-21 23:18:00.101,-0.67,0.88,-1.32,10.03
2026-06-21 23:18:00.102,0.82,-1.16,-0.96,7.87
2026-06-21 23:18:00.103,0.11,-0.88,1.34,3.53
2026-06-21 23:18:00.104,-0.94,1.95,1.14,3.37
2026-06-21 23:18:00.105,0.02,-1.13,-1.8,0.68
2026-06-21 23:18:00.106,1.77,-0.49,0.75,-1.63
2026-06-21 23:18:00.107,0.66,4.22,0.08,-4.48
2026-06-21 23:18:00.108,0.25,1.31,0.31,-10.88
2026-06-21 23:18:00.109,0.43,-1.12,1.07,-12.17
2026-06-21 23:18:00.110,-0.03,0.34,-4.36,-6.14
2026-06-21 23:18:00.111,-0.52,0.65,-1.16,-0.19
2026-06-21 23:18:00.112,1.05,0.36,3.1,5.16
2026-06-21 23:18:00.113,0.9,-0.23,0.14,4.8
2026-06-21 23:18:00.114,-1.19,-0.13,-0.62,2.57
2026-06-21 23:18:00.115,0.1,-0.57,-1.13,0.88
2026-06-21 23:18:00.116,0.41,1.52,-0.43,0.93
2026-06-21 23:18:00.117,1.06,0.43,0.87,2.69
2026-06-21 23:18:00.118,4.09,-2.87,1.11,-0.62
2026-06-21 23:18:00.119,1.72,-1.54,0.52,-1.72
2026-06-21 23:18:00.120,-0.53,-0.25,-0.74,-2.87
2026-06-21 23:18:00.121,-0.21,1.81,-0.66,-5.87
2026-06-21 23:18:00.122,-0.02,0.53,2.29,-0.45
2026-06-21 23:18:00.123,0.36,-0.04,1.11,2.91
2026-06-21 23:18:00.124,-0.4,-0.44,0.04,-0.16
2026-06-21 23:18:00.125,0.28,-1.91,2.02,2.86
2026-06-21 23:18:00.126,-0.3,0.41,1.78,1.99
2026-06-21 23:18:00.127,-0.43,-0.3,-1.75,1.58
2026-06-21 23:18:00.128,0.36,-1.72,-3.68,3.17
2026-06-21 23:18:00.129,0.44,0.24,0.16,2.59
2026-06-21 23:18:00.130,0.15,-0.08,0.11,2.95
2026-06-21 23:18:00.131,-0.37,0.02,-0.12,1.85
2026-06-21 23:18:00.132,0.81,2.35,0.57,1.27
2026-06-21 23:18:00.133,0.27,1.24,-2.43,1.2
2026-06-21 23:18:00.134,0.07,0.23,-1.85,-0.49
2026-06-21 23:18:00.135,0.93,-0.68,1.14,-1.54
2026-06-21 23:18:00.136,0.15,-0.25,1.34,-3.25
2026-06-21 23:18:00.137,0.23,0.13,1.42,-4.07
2026-06-21 23:18:00.138,1.05,-0.91,1.22,-1.18
2026-06-21 23:18:00.139,-0.41,0.72,0.01,-0.23
2026-06-21 23:18:00.140,-1.13,0.48,-0.52,-0.52
2026-06-21 23:18:00.141,0.6,-0.65,0.21,0.56
2026-06-21 23:18:00.142,0.54,0.26,-0.03,1.87
2026-06-21 23:18:00.143,0.12,-0.57,1.46,0.69
2026-06-21 23:18:00.144,0.51,-1.38,1.03,-2.01
2026-06-21 23:18:00.145,1.94,-0.81,-1.1,-2.33
2026-06-21 23:18:00.146,3.72,-0.58,-0.99,-1.18
2026-06-21 23:18:00.138,0.23,-0.69,-1.39,-2.38
2026-06-21 23:18:00.139,-1.7,1.17,0.5,-1.97
2026-06-21 23:18:00.140,-0.15,2.12,0.6,2.16
2026-06-21 23:18:00.141,-0.19,-0.26,-1.06,5.06
2026-06-21 23:18:00.142,-0.46,0.05,0.4,3.51
2026-06-21 23:18:00.143,0.2,0.53,-0.42,1.76
2026-06-21 23:18:00.144,0.81,-0.42,0.57,0.1
2026-06-21 23:18:00.145,-0.46,-0.27,1.76,-0.7
2026-06-21 23:18:00.146,-1,0.75,-0.1,-0.67
2026-06-21 23:18:00.147,-1.32,-0.36,-0.55,-3.36
2026-06-21 23:18:00.148,-1.23,-0.99,-0.22,-3.54
2026-06-21 23:18:00.149,-1.38,0.32,-0.27,-1.39
2026-06-21 23:18:00.150,0.04,1.47,-1.33,-0.82
2026-06-21 23:18:00.151,0.25,-1.43,0.17,-0.82
2026-06-21 23:18:00.152,-2.23,-0.55,-0.26,1.08
2026-06-21 23:18:00.153,-1.73,2.43,-0.98,2.41
2026-06-21 23:18:00.154,0.66,-0.42,-0.62,1.35
2026-06-21 23:18:00.155,-0.38,-2.04,-0.88,-1.21
2026-06-21 23:18:00.156,-0.49,0.1,-0.52,-3.42
2026-06-21 23:18:00.157,1.07,1.59,0.48,-1.35
2026-06-21 23:18:00.158,0.75,1.23,0.84,1.1
2026-06-21 23:18:00.159,1.79,0.42,0.03,0.03
2026-06-21 23:18:00.160,1.98,-0.22,0.19,1.72
2026-06-21 23:18:00.161,0.86,-0.05,-0.49,1.78
2026-06-21 23:18:00.162,1.35,-1.75,-0.31,0.9
2026-06-21 23:18:00.163,-1.36,-1.48,3.46,1.85
2026-06-21 23:18:00.164,-1.78,0.89,1.95,0.8
2026-06-21 23:18:00.165,1.3,-0.18,-0.12,-1.27
2026-06-21 23:18:00.166,-0.79,0.14,2.34,-1.66
2026-06-21 23:18:00.167,1.2,0.78,-0.42,0.38
2026-06-21 23:18:00.168,0.01,-1.1,-3.76,0.68
2026-06-21 23:18:00.169,-2.66,2.94,-1.45,-1.14
2026-06-21 23:18:00.170,-3.01,1.48,0.8,-1.66
2026-06-21 23:18:00.171,-3.42,-1.63,-0.09,-1.11
2026-06-21 23:18:00.172,0.25,-0.52,-1.22,-1.56
2026-06-21 23:18:00.173,0.37,-1.65,-1.47,-0.13
2026-06-21 23:18:00.174,-2.06,-3.05,0.01,0.89
2026-06-21 23:18:00.175,0.25,-0.99,-0.04,0.9
2026-06-21 23:18:00.176,0.26,0.62,-0.11,1.06
2026-06-21 23:18:00.177,-0.25,1.23,1.17,0.2
2026-06-21 23:18:00.178,0.69,0.92,-0.14,-1.1
2026-06-21 23:18:00.179,0.09,0.99,-1.63,-0.59
2026-06-21 23:18:00.180,0.24,0.26,-0.01,1.49
2026-06-21 23:18:00.181,0.42,-0.08,0.23,3.32
2026-06-21 23:18:00.182,0.67,3.71,0.28,3.24
2026-06-21 23:18:00.183,-1.83,1.79,1.42,2.44
2026-06-21 23:18:00.184,-2.07,-1.41,-0.55,1.77
2026-06-21 23:18:00.185,0.92,-1,0.69,-3.42
2026-06-21 23:18:00.186,1.42,-1.24,3.09,-7.01
2026-06-21 23:18:00.187,0.5,-0.08,0.84,-2.88
2026-06-21 23:18:00.189,2.67,1.92,0.45,-0.96
2026-06-21 23:18:00.190,1.83,-0.59,-0.01,0.32
2026-06-21 23:18:00.191,-1.75,-2.03,-1.46,2.44
2026-06-21 23:18:00.192,-1.65,-1.83,-0.83,0.16
2026-06-21 23:18:00.193,-1.54,-0.44,1.3,-0.11
2026-06-21 23:18:00.194,-1.78,0.21,0.64,0.72
2026-06-21 23:18:00.195,-0.61,0.27,0.18,0.82
2026-06-21 23:18:00.196,-1.51,1.48,0.48,0.63
2026-06-21 23:18:00.197,-1.24,-0.05,-1.79,1.06
2026-06-21 23:18:00.198,-0.85,-0.47,-0.99,0.64
2026-06-21 23:18:00.199,-1.22,0.38,-1.47,-0.32
2026-06-21 23:18:00.200,-1.16,-1.31,-2.37,0.84
2026-06-21 23:18:00.201,1.85,1.16,-0.06,1.22
2026-06-21 23:18:00.202,2.5,0.34,-0.92,1.2
2026-06-21 23:18:00.203,-0.05,-2.73,-1.36,-0.7
2026-06-21 23:18:00.204,0.7,-0.43,-0.45,-1.69
2026-06-21 23:18:00.205,-0.83,1.8,-0.18,0.54
2026-06-21 23:18:00.206,-0.54,1.51,0.12,-0.19
2026-06-21 23:18:00.207,0.68,-1.1,-1.59,-2.04
2026-06-21 23:18:00.208,-0.22,-0.93,0.21,-1.34
2026-06-21 23:18:00.209,1.98,0.67,2.3,0.21
2026-06-21 23:18:00.210,3.12,0.14,2.07,-0.2
2026-06-21 23:18:00.211,1.31,0.26,0.58,0.28
2026-06-21 23:18:00.212,-0.17,-0.32,0.79,1.84
2026-06-21 23:18:00.213,-1.55,0.13,1.34,1.22
2026-06-21 23:18:00.214,-1.8,0.04,1.09,0.27
2026-06-21 23:18:00.215,-0.08,-1.46,2.48,-1.1
2026-06-21 23:18:00.216,1.3,0.5,-1.37,-0.14
2026-06-21 23:18:00.217,-0.25,2.53,-2.24,0.47
2026-06-21 23:18:00.218,-1.04,0.83,0.05,0.4
2026-06-21 23:18:00.219,-0.64,-0.5,-1.5,-0.37
2026-06-21 23:18:00.220,-0.03,0.12,-1.23,-2.53
2026-06-21 23:18:00.221,-0.44,0.46,0.49,-0.24
2026-06-21 23:18:00.222,-0.46,0.94,1.86,0.38
2026-06-21 23:18:00.223,-0.44,-1.16,2.38,-0.85
2026-06-21 23:18:00.224,-0.84,0.26,2.03,1.6
2026-06-21 23:18:00.225,0.43,1.06,2.7,0.53
2026-06-21 23:18:00.226,0.28,-1.31,3.12,-1.06
2026-06-21 23:18:00.227,-0.11,-0.36,-0.23,0.24
2026-06-21 23:18:00.228,0.6,0.84,-6.45,0.14
2026-06-21 23:18:00.229,1.06,0.94,-5.57,-0.7
2026-06-21 23:18:00.230,0.16,1.54,-1.56,-0.21
2026-06-21 23:18:00.231,0.02,-0.13,-3.33,-0.01
2026-06-21 23:18:00.232,0.53,0.17,-2.59,-0.38
2026-06-21 23:18:00.233,-1.07,1.16,1.67,0.05
2026-06-21 23:18:00.234,1.14,-0.33,2.24,-0.48
2026-06-21 23:18:00.235,0.79,-1.52,0.36,0.32
2026-06-21 23:18:00.236,-0.61,-2.62,2.19,0.32
2026-06-21 23:18:00.237,2.03,-0.33,3.02,-1.01
2026-06-21 23:18:00.238,1.96,-0.47,-0.18,-0.24
2026-06-21 23:18:00.246,2.08,-1.89,0.48,0.63
2026-06-21 23:18:00.247,1.82,-0.8,1.45,0.13
2026-06-21 23:18:00.248,-1.96,-1.81,-1.19,-0.25
2026-06-21 23:18:00.249,-1.41,-0.15,-0.4,0.46
2026-06-21 23:18:00.250,0.84,0.92,-0.8,0.32
2026-06-21 23:18:00.251,-2.45,-2.07,0.6,-0.93
2026-06-21 23:18:00.252,-2.8,-0.11,2.73,0.18
2026-06-21 23:18:00.253,1.17,-1.35,-0.97,0.58
2026-06-21 23:18:00.254,1.1,-1.49,-2.18,0.21
2026-06-21 23:18:00.255,-0.5,2.66,-1.33,0.43
2026-06-21 23:18:00.256,1.56,4.43,1.06,-0.55
2026-06-21 23:18:00.257,0.96,4.07,0.5,-0.37
2026-06-21 23:18:00.258,-0.33,2.59,-0.49,0.36
2026-06-21 23:18:00.259,-0.7,1.21,-0.03,0.57
2026-06-21 23:18:00.260,0.86,-1.49,1.79,0.64
2026-06-21 23:18:00.261,1.72,-0.33,5.69,0.84
2026-06-21 23:18:00.262,1.16,-0.84,2.1,1.05
2026-06-21 23:18:00.263,1.85,-1,2.54,1.27
2026-06-21 23:18:00.264,1.3,0.8,1.43,-0.13
2026-06-21 23:18:00.265,0.42,-2.37,-9.42,-3.15
2026-06-21 23:18:00.266,1.52,-3.52,-7.92,-2.09
2026-06-21 23:18:00.267,1.08,-1.21,0.22,1.03
2026-06-21 23:18:00.268,0.36,-1.51,-0.24,0.45
2026-06-21 23:18:00.269,0.71,-2.71,-0.47,-0.42
2026-06-21 23:18:00.270,-0.84,-2.89,1.84,-0.56
2026-06-21 23:18:00.271,-0.49,1.45,1.83,-0.44
2026-06-21 23:18:00.272,-0.52,4.38,1.95,0.74
2026-06-21 23:18:00.273,-0.19,4.44,2.52,-0.75
2026-06-21 23:18:00.274,0.72,1.35,3.75,-1.09
2026-06-21 23:18:00.275,-0.06,-0.88,0.91,0.4
2026-06-21 23:18:00.276,-1.04,0.22,-2.67,0.18
2026-06-21 23:18:00.277,0.07,-0.4,-0.33,0.14
2026-06-21 23:18:00.278,0.44,-1.37,-3.73,0.61
2026-06-21 23:18:00.279,-1.34,-2.29,-4.26,0.85
2026-06-21 23:18:00.280,-1.21,-1.3,-0.67,0.34
2026-06-21 23:18:00.281,-1.19,0.59,-3.14,0.13
2026-06-21 23:18:00.282,-0.54,1.04,-1.29,0.18
2026-06-21 23:18:00.283,-0.93,-1.47,0.41,0.3
2026-06-21 23:18:00.284,-0.94,-0.77,1.65,0.14
2026-06-21 23:18:00.285,1.32,0.22,2.19,0.43
2026-06-21 23:18:00.286,0.58,-0.55,1.64,0.16
2026-06-21 23:18:00.287,0.59,-2.1,0.98,-1.21
2026-06-21 23:18:00.288,2,-0.78,0.17,-0.49
2026-06-21 23:18:00.289,1.69,6.23,1.85,0.06
2026-06-21 23:18:00.290,2.06,5.68,0.97,-1.2
2026-06-21 23:18:00.291,0.79,-1.96,1.67,-0.25
2026-06-21 23:18:00.292,3.56,-1.95,-0.91,0.25
2026-06-21 23:18:00.293,3.84,-0.11,-3.18,-0.52
2026-06-21 23:18:00.294,1.56,0.47,1.4,0.12
2026-06-21 23:18:00.295,1.42,0.93,1.72,0.02
2026-06-21 23:18:00.290,-3.15,0.66,0.94,-0.74
2026-06-21 23:18:00.291,-2.96,1.21,4.74,-0.01
2026-06-21 23:18:00.292,-2.59,0.14,1.83,-0.86
2026-06-21 23:18:00.293,-1.58,-0.02,-4.27,-1.36
2026-06-21 23:18:00.294,-0.49,-0.39,-4.43,0.79
2026-06-21 23:18:00.295,-1.46,0.26,-2.59,-0.39
2026-06-21 23:18:00.296,1.28,0.6,-1.91,-0.39
2026-06-21 23:18:00.297,-2.2,-2.26,-1.84,0.57
2026-06-21 23:18:00.298,-3.12,-2.44,-2.01,0.88
2026-06-21 23:18:00.299,2.48,0.41,-0.08,1.79
2026-06-21 23:18:00.300,-0.04,-0.3,2.62,1.21
2026-06-21 23:18:00.301,-1.33,-0.14,2.03,1.69
2026-06-21 23:18:00.302,-0.83,-1.89,-0.66,1.37
2026-06-21 23:18:00.303,-2.69,-5.81,-1.83,-0.77
2026-06-21 23:18:00.304,-0.76,-0.96,-1.57,0.86
2026-06-21 23:18:00.305,0.6,8.67,-1.45,0.44
2026-06-21 23:18:00.306,0.72,8.07,-0.01,-0.34
2026-06-21 23:18:00.307,1.47,0.08,0.48,3.32
2026-06-21 23:18:00.308,0.45,-1.03,2.5,-0.4
2026-06-21 23:18:00.309,0.18,-0.38,2.23,-2.27
2026-06-21 23:18:00.310,1.07,-1.66,-0.57,0.27
2026-06-21 23:18:00.311,0.52,-0.4,-0.78,-1.99
2026-06-21 23:18:00.312,1.3,0.76,0.18,-2.54
2026-06-21 23:18:00.313,2.46,-0.18,2.72,0.16
2026-06-21 23:18:00.314,0.18,0,3.31,0.32
2026-06-21 23:18:00.315,-1.02,0.06,2.3,-1.05
2026-06-21 23:18:00.316,-0.77,-0.02,3.62,-0.81
2026-06-21 23:18:00.317,-1.35,0.35,5.26,0.79
2026-06-21 23:18:00.318,-0.64,-0.24,0.22,-1.4
2026-06-21 23:18:00.319,-0.22,-1.01,-7.06,0.48
2026-06-21 23:18:00.320,-1.29,-0.56,-2.66,2.37
2026-06-21 23:18:00.321,-0.58,-1.01,-0.57,-0.74
2026-06-21 23:18:00.322,0.32,-0.84,-4.63,1.52
2026-06-21 23:18:00.323,-0.84,0.46,-0.9,1.6
2026-06-21 23:18:00.324,-2.97,-1.2,0.52,-0.11
2026-06-21 23:18:00.325,-2.56,-0.33,0.01,0.88
2026-06-21 23:18:00.326,-0.83,0.88,1.37,0.15
2026-06-21 23:18:00.327,-1.04,0.48,3.2,0.55
2026-06-21 23:18:00.328,-0.18,1.03,2.92,0.87
2026-06-21 23:18:00.329,0.48,0.35,-3.69,-1.29
2026-06-21 23:18:00.330,0.61,0.04,-5.85,-0.7
2026-06-21 23:18:00.331,-0.25,1.07,-4.19,-0.03
2026-06-21 23:18:00.332,-0.03,0.78,-3.79,0.32
2026-06-21 23:18:00.333,0.8,0.38,-0.23,-0.36
2026-06-21 23:18:00.334,1.03,0.65,2.53,-0.02
2026-06-21 23:18:00.335,2.16,-1.12,2.74,0.99
2026-06-21 23:18:00.336,1.28,-2.07,3.31,-0.24
2026-06-21 23:18:00.337,1.42,0.68,3.33,-0.62
2026-06-21 23:18:00.338,1.59,1.02,3.61,-0.4
2026-06-21 23:18:00.339,1.48,-0.62,5.28,-0.58
2026-06-21 23:18:00.346,0.5,-1.05,5.95,-0.43
2026-06-21 23:18:00.347,-3.78,1.17,5.37,0.23
2026-06-21 23:18:00.348,-4.44,0.68,3.68,1.24
2026-06-21 23:18:00.349,-2.19,-2.87,-4.05,1.84
2026-06-21 23:18:00.350,-2.15,-0.46,-6.14,0.53
2026-06-21 23:18:00.351,-3.47,0.47,-2.19,-0.5
2026-06-21 23:18:00.352,-1.84,-0.38,-3.77,-0.16
2026-06-21 23:18:00.353,0.92,0.54,-6.63,-0.5
2026-06-21 23:18:00.354,-0.3,-0.33,-4.52,0.05
2026-06-21 23:18:00.355,0,0.11,0.58,-0.57
2026-06-21 23:18:00.356,1.7,-1.23,1.45,-1.36
2026-06-21 23:18:00.357,1.77,-0.83,2.95,-0.49
2026-06-21 23:18:00.358,1.39,0.18,5.07,0.28
2026-06-21 23:18:00.359,1.33,-1,0.91,-0.19
2026-06-21 23:18:00.360,0.37,1.85,-1.19,-0.55
2026-06-21 23:18:00.361,-0.69,2.55,-1.57,1.15
2026-06-21 23:18:00.362,1.23,0.41,-3.83,0.08
2026-06-21 23:18:00.363,-2.4,-1.03,-1.54,-1.33
2026-06-21 23:18:00.364,-2.31,0.38,-0.1,-1.67
2026-06-21 23:18:00.365,1.15,1.9,1.94,-0.83
2026-06-21 23:18:00.366,-2.29,0.05,3.12,-0.04
2026-06-21 23:18:00.367,1.25,0.37,1.58,-1.62
2026-06-21 23:18:00.368,2.59,1.01,0.97,0.36
2026-06-21 23:18:00.369,-1.72,-2.74,0.57,0.98
2026-06-21 23:18:00.370,0.65,-1.78,0.75,0.12
2026-06-21 23:18:00.371,2.88,0.35,-0.27,0.27
2026-06-21 23:18:00.372,0.73,-2.15,-1.15,-1.27
2026-06-21 23:18:00.373,-0.4,-1.89,-1.78,0.72
2026-06-21 23:18:00.374,-1.47,-0.16,-0.96,0.79
2026-06-21 23:18:00.375,-2.85,0.74,0.87,-0.03
2026-06-21 23:18:00.376,-1.78,1.41,0.34,0.24
2026-06-21 23:18:00.377,-0.57,0.9,-0.25,0.1
2026-06-21 23:18:00.378,-2.03,1.04,0.57,1.44
2026-06-21 23:18:00.379,-1.3,-0.69,1.04,0.14
2026-06-21 23:18:00.380,-0.01,-0.58,-0.8,-0.21
2026-06-21 23:18:00.381,-2,0.89,-0.89,0.09
2026-06-21 23:18:00.382,-0.24,-0.82,0.48,-0.09
2026-06-21 23:18:00.383,1.22,-0.44,-1.61,0.13
2026-06-21 23:18:00.384,-0.61,-1.63,-1.6,-0.78
2026-06-21 23:18:00.385,0.02,-0.75,-1.21,-0.53
2026-06-21 23:18:00.386,1.89,2.07,-2.61,0.07
2026-06-21 23:18:00.387,1.45,-0.53,0.02,0.41
2026-06-21 23:18:00.388,1.22,-1.21,0.19,0.1
2026-06-21 23:18:00.389,1.42,1.88,-0.18,-0.34
2026-06-21 23:18:00.390,2.26,1.07,0.5,0.15
2026-06-21 23:18:00.391,2.34,-0.35,-0.47,-0.47
2026-06-21 23:18:00.392,1.93,-0.55,0.86,0.3
2026-06-21 23:18:00.393,0.95,-1.95,3.33,0.06
2026-06-21 23:18:00.394,-0.68,-0.96,0.88,-2.05
2026-06-21 23:18:00.395,-0.49,-0.55,-2.47,0.02
2026-06-21 23:18:00.384,0.14,-0.36,-0.1,0.03
2026-06-21 23:18:00.385,-1.19,1.79,1.27,-1.39
2026-06-21 23:18:00.386,-1.25,-1.69,-0.41,0.62
2026-06-21 23:18:00.387,-0.56,-0.99,-2.16,0.2
2026-06-21 23:18:00.388,-1.16,4.01,-0.89,-0.06
2026-06-21 23:18:00.389,-0.81,0.78,0.85,0.15
2026-06-21 23:18:00.390,-0.59,-1.96,0.18,0.16
2026-06-21 23:18:00.391,-0.38,-0.95,-0.77,0.26
2026-06-21 23:18:00.392,-0.36,0.69,0.59,0.38
2026-06-21 23:18:00.393,-0.11,1.36,0.04,0.55
2026-06-21 23:18:00.394,-0.48,0.66,-1.08,0.53
2026-06-21 23:18:00.395,0.84,0.54,-2.31,0.18
2026-06-21 23:18:00.396,2.35,-0.48,-1.8,1.44
2026-06-21 23:18:00.397,0.71,0.72,2.88,2.28
2026-06-21 23:18:00.398,-1.19,0.61,2.22,0.63
2026-06-21 23:18:00.399,-0.49,-1.51,0.18,2.25
2026-06-21 23:18:00.400,-0.85,0.42,0.53,0.33
2026-06-21 23:18:00.401,-0.21,-0.96,-1.94,-4.24
2026-06-21 23:18:00.402,0.28,-0.86,-3.15,-2.11
2026-06-21 23:18:00.403,1.51,2.76,-2.03,-0.21
2026-06-21 23:18:00.404,3.37,0.13,1.19,-1.94
2026-06-21 23:18:00.405,2.37,-1.89,4.28,0.45
2026-06-21 23:18:00.406,-0.62,-1.43,3.12,0.47
2026-06-21 23:18:00.407,0.76,-0.1,1.85,-1.43
2026-06-21 23:18:00.408,1.11,1.08,0.76,-0.05
2026-06-21 23:18:00.409,-3.14,-1.77,-1.04,0.34
2026-06-21 23:18:00.410,-0.84,-1.88,1.1,0.51
2026-06-21 23:18:00.411,0.79,-0.53,2.59,2.18
2026-06-21 23:18:00.412,-0.45,0.64,-0.99,0.06
2026-06-21 23:18:00.413,1.9,4.09,-2.19,-1.24
2026-06-21 23:18:00.414,0.04,1.9,-1.69,1
2026-06-21 23:18:00.415,-1.22,-0.54,-1.33,1
2026-06-21 23:18:00.416,1.04,0.69,0.95,0.26
2026-06-21 23:18:00.417,-1.88,-2.18,-0.04,-0.72
2026-06-21 23:18:00.418,0.87,-0.88,-2.7,-0.77
2026-06-21 23:18:00.419,0.43,1.55,-3.06,0.89
2026-06-21 23:18:00.420,-1.49,-0.04,-0.05,0.25
2026-06-21 23:18:00.421,-0.27,0.05,1.58,-0.58
2026-06-21 23:18:00.422,0.69,-0.17,0.85,0.39
2026-06-21 23:18:00.423,-1.5,-1.2,-0.33,-1.52
2026-06-21 23:18:00.424,-1.14,0.66,-2.69,0.12
2026-06-21 23:18:00.425,0.02,0.74,-3.87,2.05
2026-06-21 23:18:00.426,-1.56,0.92,-1.81,0.86
2026-06-21 23:18:00.427,2.26,2,2.18,0.21
2026-06-21 23:18:00.428,0.91,-0.58,2.87,0.03
2026-06-21 23:18:00.429,-0.14,-0.43,6.33,1.03
2026-06-21 23:18:00.430,2.9,0.95,6.66,-0.82
2026-06-21 23:18:00.431,0.88,-3.15,-0.89,-2.75
2026-06-21 23:18:00.432,1.2,-5.41,-3.25,-1.63
2026-06-21 23:18:00.433,1.88,-1.46,3.04,-1.08
2026-06-21 23:18:00.444,-1.68,-0.07,5.06,0.1
2026-06-21 23:18:00.445,-2.21,-1.58,-0.28,1.27
2026-06-21 23:18:00.446,-2.99,-2.01,-2.27,0.15
2026-06-21 23:18:00.447,-1.66,3.78,0.1,0.54
2026-06-21 23:18:00.448,-1.42,4.01,-1.5,0.06
2026-06-21 23:18:00.449,-0.36,0.45,-1.77,-1.83
2026-06-21 23:18:00.450,-0.24,1.82,-1.92,0.13
2026-06-21 23:18:00.451,-0.6,-0.15,-0.45,1.16
2026-06-21 23:18:00.452,-0.08,-2.06,1.43,-0.54
2026-06-21 23:18:00.453,-0.8,0.07,0.74,0.29
2026-06-21 23:18:00.454,0.87,0.41,-1.78,0.22
2026-06-21 23:18:00.455,2.29,-0.16,-4.67,0.48
2026-06-21 23:18:00.456,0.92,-1.36,-4.32,1.89
2026-06-21 23:18:00.457,-0.74,-0.03,-3.98,0.64
2026-06-21 23:18:00.458,-0.77,1.35,1.18,2.4
2026-06-21 23:18:00.459,-0.49,1.17,4.72,0.66
2026-06-21 23:18:00.460,0.75,3.21,2.68,-1.66
2026-06-21 23:18:00.461,0.44,-0.19,1.93,1.01
2026-06-21 23:18:00.462,-0.14,-1.16,1.34,-0.63
2026-06-21 23:18:00.463,-0.38,1.66,-1.22,-1.32
2026-06-21 23:18:00.464,0.54,3.04,-0.53,0.02
2026-06-21 23:18:00.465,0.24,1.35,0.83,-0.58
2026-06-21 23:18:00.466,-0.41,0.68,1.79,-0.93
2026-06-21 23:18:00.467,0.03,1.17,0.38,-1.01
2026-06-21 23:18:00.468,-0.73,-1.12,0.89,-1.09
2026-06-21 23:18:00.469,-0.02,-2.01,0.79,-1.89
2026-06-21 23:18:00.470,0.46,-1.52,0.15,-0.32
2026-06-21 23:18:00.471,-0.84,0.28,2.27,1.61
2026-06-21 23:18:00.472,-0.53,0.55,-0.04,-0.4
2026-06-21 23:18:00.473,-0.93,-1.9,-0.21,-0.48
2026-06-21 23:18:00.474,-1.27,-0.98,-2.04,1.05
2026-06-21 23:18:00.475,-0.11,0.07,-6.17,0.58
2026-06-21 23:18:00.476,-1.19,0.16,-1.95,0.24
2026-06-21 23:18:00.477,-0.6,0.11,1.41,0.91
2026-06-21 23:18:00.478,0.52,0.45,0.14,0.99
2026-06-21 23:18:00.479,-1.09,2.56,-1.67,0.7
2026-06-21 23:18:00.480,-0.66,2.84,-2.6,-0.78
2026-06-21 23:18:00.481,-0.12,2.93,0.22,-0.89
2026-06-21 23:18:00.482,-0.11,1.6,0.82,0.56
2026-06-21 23:18:00.483,0.12,-0.45,0.93,0.76
2026-06-21 23:18:00.484,0.37,0.1,1.67,1.18
2026-06-21 23:18:00.485,0.53,0.16,2.88,0.71
2026-06-21 23:18:00.486,0.76,0.01,1.64,-0.56
2026-06-21 23:18:00.487,1.16,0.76,-2.43,-0.14
2026-06-21 23:18:00.488,1.07,0.51,-2.32,0.06
2026-06-21 23:18:00.489,1.27,-1.13,0.16,-0.24
2026-06-21 23:18:00.490,1.4,-0.48,0.88,-0.02
2026-06-21 23:18:00.491,2.45,2.42,0.22,0.33
2026-06-21 23:18:00.492,2.71,2.68,0.02,0.02
2026-06-21 23:18:00.493,-0.35,1.11,0.06,-0.75
2026-06-21 23:18:00.481,-3.68,0.56,0,-1.44
2026-06-21 23:18:00.482,-1.63,2.12,-3.6,-1.02
2026-06-21 23:18:00.483,1.21,1.92,-3.9,0.36
2026-06-21 23:18:00.484,0.01,2.38,-1,-0.5
2026-06-21 23:18:00.485,0,3.5,-0.87,-1.8
2026-06-21 23:18:00.486,0.39,0.85,0.42,-0.62
2026-06-21 23:18:00.487,-0.43,-2.77,2.87,0.68
2026-06-21 23:18:00.488,0.72,-1.53,4.79,1.1
2026-06-21 23:18:00.489,-2.19,0.19,3.42,0.68
2026-06-21 23:18:00.490,-2.18,0.06,0.59,-0.26
2026-06-21 23:18:00.491,-0.48,0.46,0.2,0.71
2026-06-21 23:18:00.492,-1.24,1.53,-1.11,0.77
2026-06-21 23:18:00.493,0.36,2.04,-0.95,0.82
2026-06-21 23:18:00.494,-0.18,0.6,0.23,1.85
2026-06-21 23:18:00.495,-0.46,-1.4,0.35,0.85
2026-06-21 23:18:00.496,2.33,-3.61,-1.02,-0.17
2026-06-21 23:18:00.497,2.44,-2.6,-1.62,0.94
2026-06-21 23:18:00.498,1.02,-2.45,-0.87,0.87
2026-06-21 23:18:00.499,3.8,-2.36,-2.3,-1.27
2026-06-21 23:18:00.500,3.69,-1.24,0.2,-2.18
2026-06-21 23:18:00.501,-0.36,-1.53,0.61,-1.94
2026-06-21 23:18:00.502,-1.29,-1.63,0.52,-2.23
2026-06-21 23:18:00.503,0.89,-1.76,2.07,-0.12
2026-06-21 23:18:00.504,1.91,-3.7,-0.31,0.69
2026-06-21 23:18:00.505,3,-4.33,0.97,-0.74
2026-06-21 23:18:00.506,1.93,-2.72,1.75,0.59
2026-06-21 23:18:00.507,-1.39,-2.95,0.18,1.57
2026-06-21 23:18:00.508,-2.8,-0.86,0.87,0.72
2026-06-21 23:18:00.509,-1.94,-0.75,1.63,-1.87
2026-06-21 23:18:00.510,-1.32,-1.41,-0.54,-1.44
2026-06-21 23:18:00.511,0.7,0.4,-3.6,0.98
2026-06-21 23:18:00.512,2.31,0.26,-1.67,0.21
2026-06-21 23:18:00.513,0.08,1.63,-0.69,0.02
2026-06-21 23:18:00.514,-0.42,1.2,0.6,0.75
2026-06-21 23:18:00.515,-1.42,-2.19,2.71,0.74
2026-06-21 23:18:00.516,-2.43,-0.29,0.91,0.4
2026-06-21 23:18:00.517,-0.23,-0.34,1.59,-0.11
2026-06-21 23:18:00.518,2.56,-2.51,0.67,-0.01
2026-06-21 23:18:00.519,1.19,-0.48,-0.89,0.66
2026-06-21 23:18:00.520,-0.39,0.57,1.91,1.24
2026-06-21 23:18:00.521,1.33,-2.7,0.44,0.63
2026-06-21 23:18:00.522,0.58,-2.75,-4.09,-0.57
2026-06-21 23:18:00.523,-0.6,0.92,-2.07,-0.18
2026-06-21 23:18:00.524,0.95,0.69,1.6,-0.69
2026-06-21 23:18:00.525,0.46,-0.46,0.24,-1.82
2026-06-21 23:18:00.526,0.16,-3.8,-1.3,-0.59
2026-06-21 23:18:00.527,2.17,-3.82,-2.52,0.35
2026-06-21 23:18:00.528,1.92,-3.51,-0.77,-0.34
2026-06-21 23:18:00.529,2.3,-3.25,1.85,0.18
2026-06-21 23:18:00.530,2.25,-1.46,2.26,-0.16
2026-06-21 23:18:00.525,-1.01,-0.54,1.57,0.14
2026-06-21 23:18:00.526,-1.11,0.06,-0.36,0.78
2026-06-21 23:18:00.527,-1.45,-3.94,-0.1,0.09
2026-06-21 23:18:00.528,-2.99,-2.17,-0.73,0.2
2026-06-21 23:18:00.529,-1.79,2.9,-0.85,0
2026-06-21 23:18:00.530,-3.15,-2.39,0.51,-0.41
2026-06-21 23:18:00.531,-1.77,-1.77,0.63,-0.87
2026-06-21 23:18:00.532,0.13,1.42,-0.51,-1.15
2026-06-21 23:18:00.533,-0.08,-0.72,-1.23,-0.04
2026-06-21 23:18:00.534,0.19,0.63,0.28,0.35
2026-06-21 23:18:00.535,-1.83,-1.01,1.73,0.11
2026-06-21 23:18:00.536,-0.22,0.04,1.32,0.25
2026-06-21 23:18:00.537,1.74,1.67,0.65,0.28
2026-06-21 23:18:00.538,0.31,-0.05,0.12,1.12
2026-06-21 23:18:00.539,-0.24,1.43,0.76,0.41
2026-06-21 23:18:00.540,0.84,1.67,-0.24,1.5
2026-06-21 23:18:00.541,0.92,0.54,-3.76,2.12
2026-06-21 23:18:00.542,-0.2,0.77,-3.71,-1.32
2026-06-21 23:18:00.543,0.5,1.01,-4.47,-2.33
