# participant=P001 | sex=male | age=22 | weight_kg=68 | height_cm=175
# exercise=stair_ascent | trial_no=3 | label=stair_ascent | session=2026-06-21T17:53:23.000Z | tz=Asia/Calcutta
datetime_local,muscle1_filtered_mV,muscle2_filtered_mV,muscle3_filtered_mV,muscle4_filtered_mV
2026-06-21 23:23:22.954,,,534.94,
2026-06-21 23:23:22.955,,,666.46,
2026-06-21 23:23:22.956,,,355.1,
2026-06-21 23:23:22.957,,,394.46,
2026-06-21 23:23:22.958,,,223.91,
2026-06-21 23:23:22.959,,,203.68,
2026-06-21 23:23:22.960,,,121.78,
2026-06-21 23:23:22.961,,,69.86,
2026-06-21 23:23:22.962,,,35.17,
2026-06-21 23:23:22.963,,,-23.52,
2026-06-21 23:23:22.964,,,-35.12,
2026-06-21 23:23:22.965,,,-82.82,
2026-06-21 23:23:22.966,,,-80.22,
2026-06-21 23:23:22.967,,,-110.37,
2026-06-21 23:23:22.968,,,-109.27,
2026-06-21 23:23:22.969,,,-131.48,
2026-06-21 23:23:22.970,,,-130.26,549.13
2026-06-21 23:23:22.971,,,-147.76,685.71
2026-06-21 23:23:22.972,,,-159.57,369
2026-06-21 23:23:22.973,,,-164.74,407.56
2026-06-21 23:23:22.974,,,-156.33,229.8
2026-06-21 23:23:22.975,,,-153.36,205.15
2026-06-21 23:23:22.976,,,-150.34,117.64
2026-06-21 23:23:22.977,,,-141.81,65.93
2026-06-21 23:23:22.978,,,-132.61,33.91
2026-06-21 23:23:22.979,,,-120.93,-22.78
2026-06-21 23:23:22.980,,,-108.3,-32.45
2026-06-21 23:23:22.981,,,-94.9,-79.1
2026-06-21 23:23:22.982,,,-85.05,-77.39
2026-06-21 23:23:22.983,,,-69.64,-114.47
2026-06-21 23:23:22.984,,,-54.98,-113.62
2026-06-21 23:23:22.985,,,-44.13,-138.14
2026-06-21 23:23:22.986,,,-34.27,-142.27
2026-06-21 23:23:22.987,,,-27.12,-154.13
2026-06-21 23:23:22.988,,,-24.59,-156.16
2026-06-21 23:23:22.984,546.55,,-20.33,-161.79
2026-06-21 23:23:22.985,681.31,,-15.99,-160.42
2026-06-21 23:23:22.986,368.15,,-16.8,-158.52
2026-06-21 23:23:22.987,410.21,,-17.15,-152.94
2026-06-21 23:23:22.988,230.81,,-17.75,-147.63
2026-06-21 23:23:22.989,206.07,,-20.9,-139.72
2026-06-21 23:23:22.990,121.48,,-20.91,-124.24
2026-06-21 23:23:22.991,67.42,460.66,-20.39,-111.9
2026-06-21 23:23:22.992,33.04,567.8,-19.98,-95.98
2026-06-21 23:23:22.993,-23,301.79,-14.76,-82.99
2026-06-21 23:23:22.994,-30.86,336.74,-8.35,-70.37
2026-06-21 23:23:22.995,-78.24,190.26,-3.62,-56.42
2026-06-21 23:23:22.996,-79.18,170.67,2.24,-43.18
2026-06-21 23:23:22.997,-115.16,98.41,10.61,-35.24
2026-06-21 23:23:22.998,-115.34,55.32,11.82,-29.26
2026-06-21 23:23:22.999,-139.03,27.3,12.82,-21.85
2026-06-21 23:23:23.000,-139.2,-19.16,23.41,-17.97
2026-06-21 23:23:23.001,-153.82,-26.39,27.29,-17.36
2026-06-21 23:23:23.002,-155.66,-65.89,26.51,-16.98
2026-06-21 23:23:23.003,-162.29,-66.54,22.76,-16.62
2026-06-21 23:23:23.004,-162.11,-95.68,10.39,-19.33
2026-06-21 23:23:23.005,-159.01,-93.12,4.63,-21.74
2026-06-21 23:23:23.006,-155.39,-115.84,4.65,-23.91
2026-06-21 23:23:23.007,-147.74,-114.02,3.31,-22.57
2026-06-21 23:23:23.008,-138.41,-122.88,0.85,-16.85
2026-06-21 23:23:23.009,-124.7,-129.25,-4.27,-14.86
2026-06-21 23:23:23.010,-113.04,-135.68,-6.33,-11.31
2026-06-21 23:23:23.011,-97.87,-134.43,-7.92,-4.24
2026-06-21 23:23:23.012,-83.93,-131.41,-10.72,1.11
2026-06-21 23:23:23.013,-69.89,-128.6,-11.09,7.23
2026-06-21 23:23:23.014,-56.32,-123.25,-7.5,12.92
2026-06-21 23:23:23.015,-44.41,-115.3,-3.99,17.35
2026-06-21 23:23:23.016,-34.85,-105.13,-1.25,19.47
2026-06-21 23:23:23.017,-26.58,-92.49,3.77,21.86
2026-06-21 23:23:23.018,-22.16,-78.21,9.59,21.94
2026-06-21 23:23:23.019,-19.85,-69.81,15.14,19.59
2026-06-21 23:23:23.020,-17.85,-58.21,14.18,18.39
2026-06-21 23:23:23.021,-17.82,-47.08,10.41,13.97
2026-06-21 23:23:23.022,-18.94,-36.77,12.5,10.84
2026-06-21 23:23:23.023,-19.92,-27.8,11.62,5.42
2026-06-21 23:23:23.024,-20.42,-23.63,10.27,-1.36
2026-06-21 23:23:23.025,-21.05,-17.81,10.02,-6.62
2026-06-21 23:23:23.026,-20.65,-13.21,4.3,-9.76
2026-06-21 23:23:23.027,-19.6,-14.76,0.51,-9.53
2026-06-21 23:23:23.028,-14.93,-14.72,-3.85,-11.67
2026-06-21 23:23:23.029,-9.78,-15.74,-9.65,-10.86
2026-06-21 23:23:23.030,-4.42,-18,-12.15,-6.04
2026-06-21 23:23:23.031,2.35,-17.69,-13.43,-4.28
2026-06-21 23:23:23.032,8.14,-18.24,-15.38,-0.26
2026-06-21 23:23:23.033,15.21,-16.39,-14.83,4.38
2026-06-21 23:23:23.046,18.96,-15.16,-11.36,8.66
2026-06-21 23:23:23.047,18.32,-12.49,-6.46,11.69
2026-06-21 23:23:23.048,17.55,-7.67,-4.7,13.72
2026-06-21 23:23:23.049,18.93,-4.09,-2.71,15.17
2026-06-21 23:23:23.050,20.48,0.79,5.11,12.74
2026-06-21 23:23:23.051,20.36,5.88,8.75,12.4
2026-06-21 23:23:23.052,14.77,10.47,9.99,11.36
2026-06-21 23:23:23.053,9.27,14.5,13.42,8.39
2026-06-21 23:23:23.054,4.14,17.24,12.39,5.92
2026-06-21 23:23:23.055,-1.3,17.37,12.64,-1.15
2026-06-21 23:23:23.056,-4,16.27,12.61,-6.64
2026-06-21 23:23:23.057,-8.28,17.2,9.1,-9.35
2026-06-21 23:23:23.058,-10.99,16.48,5.81,-12.78
2026-06-21 23:23:23.059,-10.78,12.09,0.62,-14.27
2026-06-21 23:23:23.060,-11.46,8.46,-2.73,-15.77
2026-06-21 23:23:23.061,-8.27,5.02,-7.26,-13.36
2026-06-21 23:23:23.062,-5.27,-0.02,-13.94,-12.63
2026-06-21 23:23:23.063,-1.56,-4.68,-15.33,-10.38
2026-06-21 23:23:23.064,4.54,-6.38,-13.07,-1.1
2026-06-21 23:23:23.065,8.15,-9.55,-14.67,1.25
2026-06-21 23:23:23.066,12.28,-10.46,-12.76,4.21
2026-06-21 23:23:23.067,14.67,-7.94,-8.25,10.59
2026-06-21 23:23:23.068,16.27,-8.02,-8.41,11.12
2026-06-21 23:23:23.069,16.15,-4.7,-4.15,12.03
2026-06-21 23:23:23.070,14.73,0.48,3.73,13.07
2026-06-21 23:23:23.071,11.93,2.49,9.48,13.27
2026-06-21 23:23:23.072,7.23,5.53,16.71,12.12
2026-06-21 23:23:23.073,2.75,8.94,17.93,9.82
2026-06-21 23:23:23.074,-1.42,12.79,16.29,4.94
2026-06-21 23:23:23.075,-5.93,15.36,15.34,-0.16
2026-06-21 23:23:23.076,-10.08,14.25,10.18,-4.66
2026-06-21 23:23:23.077,-13.03,12.54,4.75,-11.47
2026-06-21 23:23:23.078,-14.8,9.19,-2.12,-14.12
2026-06-21 23:23:23.079,-15.13,5.65,-3.03,-14.15
2026-06-21 23:23:23.080,-13.93,2.14,-4.7,-14.29
2026-06-21 23:23:23.081,-11.6,-1.89,-8.9,-13.55
2026-06-21 23:23:23.082,-7.88,-5.86,-9.21,-11.24
2026-06-21 23:23:23.083,-3.89,-8.95,-13.25,-4.97
2026-06-21 23:23:23.084,0.13,-11.06,-13.16,-2.53
2026-06-21 23:23:23.085,5.1,-12.98,-9.54,0.04
2026-06-21 23:23:23.086,9.09,-13.68,-7.69,6.23
2026-06-21 23:23:23.087,11.17,-12.62,-4.58,7.49
2026-06-21 23:23:23.088,13.68,-10.82,-3.07,10.82
2026-06-21 23:23:23.089,14.13,-3.99,1.56,14.64
2026-06-21 23:23:23.090,13.1,2.85,5.49,13.37
2026-06-21 23:23:23.091,11.08,2.01,5.92,10.79
2026-06-21 23:23:23.092,8.49,3.36,10.89,9.24
2026-06-21 23:23:23.093,5.07,6.6,12.81,6.46
2026-06-21 23:23:23.094,-0.36,9.4,11.01,3.04
2026-06-21 23:23:23.095,-4.17,12.54,12.56,-1.99
2026-06-21 23:23:23.081,-7.9,11.15,7.12,-5.84
2026-06-21 23:23:23.082,-11.23,9.85,2.28,-6.75
2026-06-21 23:23:23.083,-16.85,7.28,8.38,-9.82
2026-06-21 23:23:23.084,-17.12,4.17,6.93,-11.4
2026-06-21 23:23:23.085,-12.76,5.86,-6.24,-13.03
2026-06-21 23:23:23.086,-10.58,1.65,-16.33,-12.31
2026-06-21 23:23:23.087,-6.8,-4.06,-16.77,-8.96
2026-06-21 23:23:23.088,-4.26,-6.84,-12.16,-7.81
2026-06-21 23:23:23.089,0.34,-9.88,-9.35,-2.45
2026-06-21 23:23:23.090,5.99,-11.46,-7.02,2.56
2026-06-21 23:23:23.091,7.48,-11.25,-4.97,5.35
2026-06-21 23:23:23.092,10.53,-12.08,-3.73,9.46
2026-06-21 23:23:23.093,13.13,-9.99,-2.36,9.48
2026-06-21 23:23:23.094,13.56,-5.84,-0.45,10.67
2026-06-21 23:23:23.095,12.82,-4.3,4.57,12.7
2026-06-21 23:23:23.096,10.4,0.16,6.45,10.1
2026-06-21 23:23:23.097,7.86,3.43,4.12,6.66
2026-06-21 23:23:23.098,4.67,4.79,6.08,4.79
2026-06-21 23:23:23.099,-0.41,7.9,10.96,2.75
2026-06-21 23:23:23.100,-5.99,10.25,12.19,-1
2026-06-21 23:23:23.101,-7.18,10.56,10.59,-1.95
2026-06-21 23:23:23.102,-11.11,9.04,7.4,-4.8
2026-06-21 23:23:23.103,-13.62,5.22,4.93,-9.53
2026-06-21 23:23:23.104,-12.36,4.09,3.18,-10.25
2026-06-21 23:23:23.105,-12.37,4.15,-0.51,-11.06
2026-06-21 23:23:23.106,-8.79,2.85,-3.07,-11.32
2026-06-21 23:23:23.107,-4.59,0.26,-7.72,-8.99
2026-06-21 23:23:23.108,-2.57,-3.51,-13.14,-4.64
2026-06-21 23:23:23.109,0.08,-6.72,-12.78,-2
2026-06-21 23:23:23.110,3.75,-7.68,-14.54,0
2026-06-21 23:23:23.111,7.61,-10.18,-15.55,4.55
2026-06-21 23:23:23.112,9.84,-10.97,-7.88,7.01
2026-06-21 23:23:23.113,10.58,-9.03,-1.66,8.88
2026-06-21 23:23:23.114,11.32,-7.49,2.44,11.92
2026-06-21 23:23:23.115,10.71,-2.51,5.63,9.33
2026-06-21 23:23:23.116,8.51,0.03,8.51,8.26
2026-06-21 23:23:23.117,5.98,3.24,10.74,6.86
2026-06-21 23:23:23.118,3.33,8.02,8.99,4
2026-06-21 23:23:23.119,-0.97,7.89,8.11,1.24
2026-06-21 23:23:23.120,-4.17,7.48,6.56,-2.64
2026-06-21 23:23:23.121,-6.65,9.05,5.85,-3.58
2026-06-21 23:23:23.122,-9.08,8.12,6.46,-7.72
2026-06-21 23:23:23.123,-10.84,6.59,4.59,-9.05
2026-06-21 23:23:23.124,-12.82,3.72,1.67,-7.01
2026-06-21 23:23:23.125,-9.68,1.44,-2.45,-8.22
2026-06-21 23:23:23.126,-6.94,1.56,-4.35,-9.16
2026-06-21 23:23:23.127,-4.42,-2.14,-6.52,-7.81
2026-06-21 23:23:23.128,-0.13,-7.35,-12.01,-4.17
2026-06-21 23:23:23.129,0.25,-8.87,-11.14,-0.65
2026-06-21 23:23:23.130,4.96,-9.34,-6.97,0.52
2026-06-21 23:23:23.146,8.9,-8.21,-6.51,3.4
2026-06-21 23:23:23.147,8.5,-7.3,-3.29,6.34
2026-06-21 23:23:23.148,8.47,-7.19,3.4,8.45
2026-06-21 23:23:23.149,7.27,-4.42,3,11.21
2026-06-21 23:23:23.150,8.19,-2.18,-2.63,11.09
2026-06-21 23:23:23.151,6.19,1.99,-1.44,7.45
2026-06-21 23:23:23.152,5.1,4.96,5.88,7.19
2026-06-21 23:23:23.153,5.03,5.64,8.71,5.52
2026-06-21 23:23:23.154,-1.19,7.58,9.88,-0.14
2026-06-21 23:23:23.155,-4.66,8.41,10.88,-1.29
2026-06-21 23:23:23.156,-5.88,8.97,9.45,-2.08
2026-06-21 23:23:23.157,-8.73,7.74,6.97,-7.7
2026-06-21 23:23:23.158,-10.31,6.21,0.52,-9.58
2026-06-21 23:23:23.159,-10.3,5.67,-5.58,-8.5
2026-06-21 23:23:23.160,-9.34,2.37,-7.8,-10.98
2026-06-21 23:23:23.161,-6.4,-1.05,-10.26,-10.95
2026-06-21 23:23:23.162,-4.89,-3.08,-12.58,-5.82
2026-06-21 23:23:23.163,-3.69,-5.82,-10.88,-1.17
2026-06-21 23:23:23.164,1.72,-7.15,-2.3,-1.19
2026-06-21 23:23:23.165,5.09,-7.66,5.98,-0.6
2026-06-21 23:23:23.166,6.59,-8.45,3.52,4.34
2026-06-21 23:23:23.167,9.11,-7.95,0.62,4.09
2026-06-21 23:23:23.168,9.62,-6.64,-4.02,4.91
2026-06-21 23:23:23.169,10.11,-4.59,-4.53,10.3
2026-06-21 23:23:23.170,9.65,-2.49,-1.52,8.59
2026-06-21 23:23:23.171,7.54,0.2,0.05,7.87
2026-06-21 23:23:23.172,5.49,3.96,5,7.9
2026-06-21 23:23:23.173,2.28,6.04,7.39,4.53
2026-06-21 23:23:23.174,-1.27,5.99,9,3.53
2026-06-21 23:23:23.175,-3.64,6.52,7.44,2.39
2026-06-21 23:23:23.176,-6.09,6.87,5.65,-2.11
2026-06-21 23:23:23.177,-9.64,5.51,4.21,-4.88
2026-06-21 23:23:23.178,-10.79,4.69,-0.06,-8.03
2026-06-21 23:23:23.179,-9.36,5.77,-0.48,-9.85
2026-06-21 23:23:23.180,-8.78,4.16,-1.89,-10.32
2026-06-21 23:23:23.181,-7.85,0.79,-4.18,-9.29
2026-06-21 23:23:23.182,-5.05,-0.85,-4.5,-6.15
2026-06-21 23:23:23.183,-2.17,-6.29,-8.31,-4.36
2026-06-21 23:23:23.184,0.59,-7.44,-7.35,-2.78
2026-06-21 23:23:23.185,4.29,-6.49,-7.58,-0.3
2026-06-21 23:23:23.186,6.73,-9.27,-5.88,3.5
2026-06-21 23:23:23.187,7.8,-6.36,-1.98,6.68
2026-06-21 23:23:23.188,9.08,-5.53,-1.15,8.29
2026-06-21 23:23:23.189,9.1,-3.94,0.34,9.29
2026-06-21 23:23:23.190,8.16,-0.37,1.99,9.31
2026-06-21 23:23:23.191,7.05,-0.44,3.93,7.31
2026-06-21 23:23:23.192,5.7,3.69,4.09,6.32
2026-06-21 23:23:23.193,3.4,3.61,5.57,4
2026-06-21 23:23:23.194,1.57,4.82,6.05,1.75
2026-06-21 23:23:23.195,-2.5,9.55,5.93,-0.95
2026-06-21 23:23:23.181,-5.4,6.4,6.86,-3.62
2026-06-21 23:23:23.182,-6.92,5.26,5.1,-5.59
2026-06-21 23:23:23.183,-13,6.41,1.63,-7.1
2026-06-21 23:23:23.184,-13.76,4.15,0.57,-8.24
2026-06-21 23:23:23.185,-7.32,1.15,-2.83,-8.85
2026-06-21 23:23:23.186,-4.9,-1.48,-3.32,-6.29
2026-06-21 23:23:23.187,-4.89,-3.21,-4.76,-4.44
2026-06-21 23:23:23.188,-3.57,-5.16,-7.74,-4.03
2026-06-21 23:23:23.189,-0.85,-6.55,-5.54,-2.36
2026-06-21 23:23:23.190,3.05,-7.02,-6.75,0.33
2026-06-21 23:23:23.191,6.14,-7.68,-8.83,5.53
2026-06-21 23:23:23.192,8.23,-6.24,-9.09,5.71
2026-06-21 23:23:23.193,8.67,-6.3,-4.53,4.55
2026-06-21 23:23:23.194,9.86,-3.89,2.94,7.69
2026-06-21 23:23:23.195,8.1,1.21,6.58,5.4
2026-06-21 23:23:23.196,5.2,0.87,12.14,6.67
2026-06-21 23:23:23.197,4.81,2.64,9.67,7.81
2026-06-21 23:23:23.198,2.83,4.88,0.75,2.2
2026-06-21 23:23:23.199,0.1,5.53,-0.58,-1.22
2026-06-21 23:23:23.200,-2.59,8.95,0.82,-2.45
2026-06-21 23:23:23.201,-5.2,6.53,3.67,-1.78
2026-06-21 23:23:23.202,-6.59,5.42,7,-4.61
2026-06-21 23:23:23.203,-9.59,6.3,6.02,-7.39
2026-06-21 23:23:23.204,-9.27,2.73,3.95,-4.72
2026-06-21 23:23:23.205,-7.28,1.2,3.17,-5.19
2026-06-21 23:23:23.206,-6.55,-1.47,0.2,-3.88
2026-06-21 23:23:23.207,-2.82,-2.74,-6.52,-3.5
2026-06-21 23:23:23.208,-1.88,-2.12,-9.01,-3.48
2026-06-21 23:23:23.209,-0.51,-5.97,-8.47,0.7
2026-06-21 23:23:23.210,3.42,-7.11,-6.96,-0.48
2026-06-21 23:23:23.211,4.67,-7.37,-7.3,1.31
2026-06-21 23:23:23.212,6.22,-9.81,-8.56,5.17
2026-06-21 23:23:23.213,7.92,-6.06,-0.12,3.84
2026-06-21 23:23:23.214,7.36,-4.46,5.08,6.21
2026-06-21 23:23:23.215,6.08,-1.85,9.48,8.34
2026-06-21 23:23:23.216,5.69,5.43,7.29,5.48
2026-06-21 23:23:23.217,4.01,4.93,-0.9,3.7
2026-06-21 23:23:23.218,1.96,4.24,2.45,2.14
2026-06-21 23:23:23.219,-0.24,6.73,4.73,1.77
2026-06-21 23:23:23.220,-3.26,6.34,2.4,-0.22
2026-06-21 23:23:23.221,-4.85,6.09,3.4,-3.33
2026-06-21 23:23:23.222,-5.85,4.37,4.65,-3.82
2026-06-21 23:23:23.223,-5.9,3.31,3.48,-5.34
2026-06-21 23:23:23.224,-6.04,5.13,-0.35,-6.39
2026-06-21 23:23:23.225,-6.66,2.63,-2.13,-7.69
2026-06-21 23:23:23.226,-5.72,-1.45,-2.63,-6.59
2026-06-21 23:23:23.227,-3.39,-3.36,-2.98,-3.4
2026-06-21 23:23:23.228,-0.78,-4.68,-7.29,-4.19
2026-06-21 23:23:23.229,2.85,-5.95,-8.45,-4.05
2026-06-21 23:23:23.230,4.02,-6.47,-2.66,0.63
2026-06-21 23:23:23.245,4.84,-6.62,-3.85,3.86
2026-06-21 23:23:23.246,5.44,-6.12,-1.9,4.23
2026-06-21 23:23:23.247,3.18,-5.06,0.53,3.56
2026-06-21 23:23:23.248,3.08,-3.82,1.27,6.99
2026-06-21 23:23:23.249,6.67,-0.12,4.07,7.31
2026-06-21 23:23:23.250,6.59,3.56,5.24,5.96
2026-06-21 23:23:23.251,2.91,3.69,2.87,4.62
2026-06-21 23:23:23.252,0.72,4.57,-0.34,1.85
2026-06-21 23:23:23.253,-0.74,4.91,0.57,2.02
2026-06-21 23:23:23.254,-1.89,3.39,5.65,0.43
2026-06-21 23:23:23.255,-4.15,5.18,7.27,0.02
2026-06-21 23:23:23.256,-6.11,4.62,4.19,-3.02
2026-06-21 23:23:23.257,-6.56,5.03,4.51,-4.91
2026-06-21 23:23:23.258,-6.83,2.97,1.31,-6.05
2026-06-21 23:23:23.259,-5.52,-1.83,-0.8,-7.33
2026-06-21 23:23:23.260,-3.58,-0.97,-6.31,-3.52
2026-06-21 23:23:23.261,-2.96,-1.82,-12.62,-4.93
2026-06-21 23:23:23.262,-0.67,-2.69,-6.19,-6.17
2026-06-21 23:23:23.263,1.54,-3.6,-1.87,-0.88
2026-06-21 23:23:23.264,2.99,-4.67,-2.51,0.83
2026-06-21 23:23:23.265,4.16,-2.41,-2.15,1.82
2026-06-21 23:23:23.266,5.01,-4.31,-7.01,3.97
2026-06-21 23:23:23.267,5.92,-4.93,-5.02,6.44
2026-06-21 23:23:23.268,6.63,-2.41,1.36,5.15
2026-06-21 23:23:23.269,6.08,-1.78,3.89,4.86
2026-06-21 23:23:23.270,4.29,0.56,6.66,6.26
2026-06-21 23:23:23.271,3.31,1.68,7.33,2.62
2026-06-21 23:23:23.272,1.67,3.38,7.36,2.45
2026-06-21 23:23:23.273,-0.55,4.21,6.71,2.41
2026-06-21 23:23:23.274,-3.11,4.02,2.82,1.77
2026-06-21 23:23:23.275,-4.91,5.86,0.49,-1.59
2026-06-21 23:23:23.276,-5.33,5.78,1.79,-5.85
2026-06-21 23:23:23.277,-6.1,3.92,-1.12,-5.44
2026-06-21 23:23:23.278,-6.23,1.81,-5.25,-5.92
2026-06-21 23:23:23.279,-5.81,1.18,-3.37,-6.56
2026-06-21 23:23:23.280,-4.75,0.18,-2.21,-3.96
2026-06-21 23:23:23.281,-2.49,-2.2,-4.23,-5.15
2026-06-21 23:23:23.282,-1.55,-4.24,-1.71,-3.92
2026-06-21 23:23:23.283,-0.27,-5.03,-1.39,0.05
2026-06-21 23:23:23.284,2.22,-5.69,-3.01,0
2026-06-21 23:23:23.285,3.27,-6.34,-4.87,2
2026-06-21 23:23:23.286,5.31,-5.24,-7.48,4.04
2026-06-21 23:23:23.287,6,-3.38,-5.81,4.77
2026-06-21 23:23:23.288,4.91,-1.52,-0.01,5.04
2026-06-21 23:23:23.289,5.9,-0.43,4.27,5.61
2026-06-21 23:23:23.290,5.31,-0.25,6.55,5.72
2026-06-21 23:23:23.291,3.97,3.38,6.52,5.02
2026-06-21 23:23:23.292,2.42,6.2,4.39,5.7
2026-06-21 23:23:23.293,0.12,1.81,6.79,2.55
2026-06-21 23:23:23.294,-0.79,4.59,5.96,-3
2026-06-21 23:23:23.280,-2.01,6.46,1.47,-2.73
2026-06-21 23:23:23.281,-3.81,3.59,1.38,-4.55
2026-06-21 23:23:23.282,-7.68,3.39,-1.06,-5.44
2026-06-21 23:23:23.283,-9.79,1.19,-1.21,-6.51
2026-06-21 23:23:23.284,-6.52,0.22,-0.44,-4.93
2026-06-21 23:23:23.285,-2.75,-2.43,-3.67,-1.6
2026-06-21 23:23:23.286,-3.51,-1.61,-4.6,-4.46
2026-06-21 23:23:23.287,-3.03,3.34,-6.06,-3.15
2026-06-21 23:23:23.288,0.52,-2.62,-5.38,0.36
2026-06-21 23:23:23.289,0.74,-6.5,-2.76,-0.56
2026-06-21 23:23:23.290,3.04,-4.25,-0.13,1.27
2026-06-21 23:23:23.291,5.8,-5.61,1.67,3.85
2026-06-21 23:23:23.292,4.86,-3.09,1.77,3.29
2026-06-21 23:23:23.293,5.34,-3.48,0.7,3.71
2026-06-21 23:23:23.294,5.11,-2.93,1.82,5.52
2026-06-21 23:23:23.295,4.72,-0.58,4.75,3.05
2026-06-21 23:23:23.296,4.15,1.36,1.96,1.47
2026-06-21 23:23:23.297,1.86,3.88,-0.9,3.88
2026-06-21 23:23:23.298,0.62,3.86,-0.4,0.59
2026-06-21 23:23:23.299,-1.5,4.15,1.89,-2.11
2026-06-21 23:23:23.300,-3.42,5.65,3.46,-0.8
2026-06-21 23:23:23.301,-4.05,4.22,3.5,-0.56
2026-06-21 23:23:23.302,-4.52,2.8,0.38,-2.94
2026-06-21 23:23:23.303,-4.89,2.56,-2.54,-3.91
2026-06-21 23:23:23.304,-4.43,2.01,-2.99,-3.46
2026-06-21 23:23:23.305,-3.8,0.77,-2.46,-4.64
2026-06-21 23:23:23.306,-2.43,-2.33,0.18,-5.18
2026-06-21 23:23:23.307,-2.09,-4.11,-1.61,-1.33
2026-06-21 23:23:23.308,-0.11,-3.61,-3.83,0.83
2026-06-21 23:23:23.309,2.5,-4.08,-2.12,0.4
2026-06-21 23:23:23.310,0.23,-5.11,1.64,1.87
2026-06-21 23:23:23.311,1.92,-4.11,0.27,2.37
2026-06-21 23:23:23.312,5.46,-4.46,-3.99,0.74
2026-06-21 23:23:23.313,5.3,-0.84,-0.7,3.08
2026-06-21 23:23:23.314,4.3,1.16,1.94,5.11
2026-06-21 23:23:23.315,2.58,0.88,2.05,3.55
2026-06-21 23:23:23.316,1.68,1.79,1.32,3.02
2026-06-21 23:23:23.317,1.53,2.99,-0.53,1.4
2026-06-21 23:23:23.318,-0.17,4.63,6.14,0.41
2026-06-21 23:23:23.319,-1.52,2.94,7.3,0.07
2026-06-21 23:23:23.320,-2.59,3.36,3.55,-2.12
2026-06-21 23:23:23.321,-3.86,4.39,3.85,-2.33
2026-06-21 23:23:23.322,-3.68,2.11,-1.23,-1.98
2026-06-21 23:23:23.323,-2.15,3.24,-4.3,-4.26
2026-06-21 23:23:23.324,-3.06,1.62,-5.71,-6.16
2026-06-21 23:23:23.325,-3.18,-1.48,-8,-2.9
2026-06-21 23:23:23.326,-1.63,-2.56,-4.51,-1.76
2026-06-21 23:23:23.327,-0.36,-4.5,-2.5,-4.19
2026-06-21 23:23:23.328,2.48,-4.52,-1.81,0.24
2026-06-21 23:23:23.329,1.93,-5.94,2.48,0.95
2026-06-21 23:23:23.346,3.44,-5.15,4.79,0.66
2026-06-21 23:23:23.347,4.29,-2.8,3.93,2.47
2026-06-21 23:23:23.348,0.54,-2.85,-3.87,3.46
2026-06-21 23:23:23.349,-0.17,-2.93,-6.79,6.45
2026-06-21 23:23:23.350,0.92,0.56,-0.18,5.29
2026-06-21 23:23:23.351,1.65,4.31,2.3,3.79
2026-06-21 23:23:23.352,2.65,5.37,3.25,3.79
2026-06-21 23:23:23.353,1.94,4.3,2.92,1.45
2026-06-21 23:23:23.354,0.26,3.16,3.09,0.5
2026-06-21 23:23:23.355,-1.56,1.97,6.19,-0.04
2026-06-21 23:23:23.356,-1.82,2.36,5.54,-2.27
2026-06-21 23:23:23.357,-3.06,2.22,2.7,-2.82
2026-06-21 23:23:23.358,-4.18,1.73,2.11,-3.62
2026-06-21 23:23:23.359,-3.24,1.1,-0.07,-3.8
2026-06-21 23:23:23.360,-2.5,-0.14,-3.72,-1.75
2026-06-21 23:23:23.361,-1.72,-0.73,-1.78,-3.68
2026-06-21 23:23:23.362,-2.58,-0.86,-0.33,-6.03
2026-06-21 23:23:23.363,-0.39,-2.47,-4.24,-3.96
2026-06-21 23:23:23.364,1.26,-4.3,-5.93,-1.28
2026-06-21 23:23:23.365,0.48,-3.28,-3.98,0.52
2026-06-21 23:23:23.366,4.45,-3.52,-4.74,1.27
2026-06-21 23:23:23.367,4.35,-2.65,-4.82,3.36
2026-06-21 23:23:23.368,2.82,-3.01,-1.95,4.68
2026-06-21 23:23:23.369,4.61,-2.5,-1.29,4.64
2026-06-21 23:23:23.370,3.24,0.41,2,5.3
2026-06-21 23:23:23.371,3.87,1.1,5.98,4.64
2026-06-21 23:23:23.372,2.63,1.38,4.35,4.67
2026-06-21 23:23:23.373,-0.22,2.67,2.26,3.48
2026-06-21 23:23:23.374,-0.27,1.92,2.04,0.62
2026-06-21 23:23:23.375,-2.53,3.39,2.1,0.3
2026-06-21 23:23:23.376,-4.28,2.74,2.32,-2.36
2026-06-21 23:23:23.377,-4.5,2.91,4.79,-4.19
2026-06-21 23:23:23.378,-4.78,3.77,3.99,-3.19
2026-06-21 23:23:23.379,-4.5,1.06,-2.14,-4.99
2026-06-21 23:23:23.380,-3.72,0.79,-3.25,-5.79
2026-06-21 23:23:23.381,-2.27,-0.02,-1.35,-4.95
2026-06-21 23:23:23.382,-2.08,-0.9,-2.54,-3.88
2026-06-21 23:23:23.383,-0.39,-0.74,-3.71,-0.66
2026-06-21 23:23:23.384,1.93,-1.6,-1.43,0.45
2026-06-21 23:23:23.385,1.86,-2.58,-0.94,1.08
2026-06-21 23:23:23.386,1.92,-3.09,-3.8,0.91
2026-06-21 23:23:23.387,3.63,-2.86,-2.28,1.03
2026-06-21 23:23:23.388,3.22,-2.71,0.13,4.11
2026-06-21 23:23:23.389,3.59,-2.66,-0.35,4.71
2026-06-21 23:23:23.390,4.65,-1.37,2.07,2.99
2026-06-21 23:23:23.391,2.87,-1.26,3.02,4.07
2026-06-21 23:23:23.392,2.61,0.48,1.1,3.51
2026-06-21 23:23:23.393,1.75,1.23,1.05,-0.02
2026-06-21 23:23:23.394,0.8,2.05,1.2,-0.1
2026-06-21 23:23:23.395,1.26,1.83,1.21,-1.75
2026-06-21 23:23:23.381,-1.81,2.67,4.26,-2.33
2026-06-21 23:23:23.382,-4.83,6.21,5.86,-0.87
2026-06-21 23:23:23.383,-6.03,1.73,-1.88,-1.93
2026-06-21 23:23:23.384,-4.14,0.23,-6.11,-1.1
2026-06-21 23:23:23.385,-3.4,3.76,-1.7,-2.32
2026-06-21 23:23:23.386,-5.56,1.6,0.05,-3.86
2026-06-21 23:23:23.387,-2.48,1.34,-2.97,-0.36
2026-06-21 23:23:23.388,-0.12,0.47,-2.82,-1.86
2026-06-21 23:23:23.389,0.04,-2.84,-1.36,-2.51
2026-06-21 23:23:23.390,1.58,-4.44,-0.63,1.43
2026-06-21 23:23:23.391,1.32,-5.44,0.14,1.1
2026-06-21 23:23:23.392,2.14,-3.99,1.14,0.02
2026-06-21 23:23:23.393,3.85,-2.38,2.8,3.5
2026-06-21 23:23:23.394,4.02,-1.64,1.86,0.69
2026-06-21 23:23:23.395,5.07,-0.99,-1.62,0.34
2026-06-21 23:23:23.396,2.92,-0.42,-1.05,5.11
2026-06-21 23:23:23.397,0.26,0.66,1.97,2.61
2026-06-21 23:23:23.398,1.01,1.33,1.02,2.97
2026-06-21 23:23:23.399,0.93,2.81,-0.57,0.13
2026-06-21 23:23:23.400,-1.84,2.93,-1.25,-2.54
2026-06-21 23:23:23.401,-3.08,2.51,0.13,0.03
2026-06-21 23:23:23.402,-2.63,3.41,1.87,-3.74
2026-06-21 23:23:23.403,-2.2,2.66,3.78,-5.18
2026-06-21 23:23:23.404,-3.15,2.21,3.75,-2.36
2026-06-21 23:23:23.405,-3.15,0.27,1.61,-1.08
2026-06-21 23:23:23.406,-2.47,-1.07,-2.46,-1.61
2026-06-21 23:23:23.407,-2.02,-1.57,-3.91,-1.18
2026-06-21 23:23:23.408,0.04,-2.8,-4.05,0.14
2026-06-21 23:23:23.409,0.54,-1.18,-3.6,-0.46
2026-06-21 23:23:23.410,1.35,-2.55,-1.48,2.94
2026-06-21 23:23:23.411,1.46,-2.88,0.12,4.97
2026-06-21 23:23:23.412,0.5,-2.07,-1.29,1.92
2026-06-21 23:23:23.413,2.64,-2.97,-1.72,0.28
2026-06-21 23:23:23.414,3.98,-0.15,0.99,0.14
2026-06-21 23:23:23.415,3.64,0.41,0.41,0.79
2026-06-21 23:23:23.416,2.28,-1.33,1.84,1.27
2026-06-21 23:23:23.417,0.26,1.64,4.35,0.66
2026-06-21 23:23:23.418,0.74,3.7,5.17,2.2
2026-06-21 23:23:23.419,0.05,2.58,4.41,2.71
2026-06-21 23:23:23.420,-0.78,1.71,2.56,0
2026-06-21 23:23:23.421,-2.62,1.88,-0.36,-0.82
2026-06-21 23:23:23.422,-4.16,1.84,-2.8,-1.69
2026-06-21 23:23:23.423,-2.82,1.98,-1.68,-3.69
2026-06-21 23:23:23.424,-1.9,0.8,-0.2,-3.66
2026-06-21 23:23:23.425,-0.81,0.74,-1.61,-4.11
2026-06-21 23:23:23.426,-1.04,-0.98,-2.32,-3.14
2026-06-21 23:23:23.427,-0.68,-4.75,-2.89,-1.95
2026-06-21 23:23:23.428,0.68,-2.49,-2.04,-2.73
2026-06-21 23:23:23.429,0.87,-0.6,-1.82,0.32
2026-06-21 23:23:23.430,2.88,0.95,-0.47,2.79
2026-06-21 23:23:23.446,3.79,-0.49,-1.45,1.06
2026-06-21 23:23:23.447,2.32,-2.6,-4.56,1.35
2026-06-21 23:23:23.448,-1.4,-1.52,-0.85,3.44
2026-06-21 23:23:23.449,-0.83,-1.54,1.33,5.21
2026-06-21 23:23:23.450,2.5,-0.57,1.85,5.63
2026-06-21 23:23:23.451,0.88,-0.3,2.32,2.69
2026-06-21 23:23:23.452,0.75,-0.05,1.62,0.48
2026-06-21 23:23:23.453,0.43,2.44,3.14,1.88
2026-06-21 23:23:23.454,0.02,1.44,4.39,1.76
2026-06-21 23:23:23.455,-0.3,1.62,2.48,-0.95
2026-06-21 23:23:23.456,-1.67,1.01,0.63,-2.53
2026-06-21 23:23:23.457,-1.13,-1.76,1.31,-3.97
2026-06-21 23:23:23.458,-3.1,1.36,2.59,-4.54
2026-06-21 23:23:23.459,-3.06,4.16,-1.94,-4.21
2026-06-21 23:23:23.460,-1.31,4.31,-0.81,-3.97
2026-06-21 23:23:23.461,-3.22,2.61,0.27,-2
2026-06-21 23:23:23.462,-1.44,-1.07,-3.06,-0.8
2026-06-21 23:23:23.463,0.27,-2.48,0.44,-2.16
2026-06-21 23:23:23.464,0.73,-2.24,1.47,-2.42
2026-06-21 23:23:23.465,1.57,-2.83,-1.38,-0.18
2026-06-21 23:23:23.466,1.97,-2.65,-4.54,0.83
2026-06-21 23:23:23.467,3.39,-2.41,-7.6,2.86
2026-06-21 23:23:23.468,2.43,-1.36,-4.8,3.51
2026-06-21 23:23:23.469,2.94,-2.18,-2.15,3.96
2026-06-21 23:23:23.470,2.63,-1.74,-0.84,3.84
2026-06-21 23:23:23.471,0.65,-0.07,5.33,1.82
2026-06-21 23:23:23.472,1.4,0.34,4.77,1.97
2026-06-21 23:23:23.473,0.51,1.21,0.23,1.06
2026-06-21 23:23:23.474,-0.81,1.07,0.17,0.55
2026-06-21 23:23:23.475,-0.69,1.99,2.77,0.58
2026-06-21 23:23:23.476,-2.12,0.88,3.72,2.32
2026-06-21 23:23:23.477,-2.89,2.86,5.54,1.87
2026-06-21 23:23:23.478,-2.8,6.48,4.35,-4.48
2026-06-21 23:23:23.479,-2.47,2.64,-2.76,-4.55
2026-06-21 23:23:23.480,-2.55,-0.92,-3.03,-2.13
2026-06-21 23:23:23.481,-2.52,-0.66,1.95,-3.69
2026-06-21 23:23:23.482,-1.39,-0.22,-0.7,-2.79
2026-06-21 23:23:23.483,-0.99,-0.6,-3.71,-1.64
2026-06-21 23:23:23.484,0.33,-2.43,-3.71,-1.23
2026-06-21 23:23:23.485,1.58,-2.24,-2.86,-0.11
2026-06-21 23:23:23.486,1.94,-1.75,-2.04,1.15
2026-06-21 23:23:23.487,2.3,-2.95,-3.09,1.14
2026-06-21 23:23:23.488,2.91,-1.94,-0.48,2.35
2026-06-21 23:23:23.489,2.23,-0.49,0.75,3.25
2026-06-21 23:23:23.490,1.39,-0.95,1.42,1.81
2026-06-21 23:23:23.491,2.07,-0.62,1.29,1.39
2026-06-21 23:23:23.492,2.16,1.64,1.39,1.74
2026-06-21 23:23:23.493,1.25,0.72,3.31,1.98
2026-06-21 23:23:23.494,0.94,0.82,2.11,0.05
2026-06-21 23:23:23.495,1.01,1.47,0.84,-1.89
2026-06-21 23:23:23.481,0.76,0.83,-1.32,-0.21
2026-06-21 23:23:23.482,-2.16,1.6,-1.21,-1.2
2026-06-21 23:23:23.483,-6.83,-0.17,2.15,-1.51
2026-06-21 23:23:23.484,-6.18,1.22,2.71,-0.03
2026-06-21 23:23:23.485,-2.57,4.03,1.01,-2.25
2026-06-21 23:23:23.486,-1.54,2.66,-2.54,-1.73
2026-06-21 23:23:23.487,-1.53,1.25,-0.16,0.92
2026-06-21 23:23:23.488,-0.46,-0.98,-1.15,-1.97
2026-06-21 23:23:23.489,-0.23,-3.11,-2.68,-2.99
2026-06-21 23:23:23.490,0.79,-2.62,-2.05,0.55
2026-06-21 23:23:23.491,3.34,-2.83,-3.42,1.09
2026-06-21 23:23:23.492,3.96,-1.9,-0.74,1.68
2026-06-21 23:23:23.493,3.21,-2.02,1.21,3.22
2026-06-21 23:23:23.494,1.53,-1.26,3.34,1.41
2026-06-21 23:23:23.495,0.56,-0.89,2.39,0.94
2026-06-21 23:23:23.496,1.51,-1.88,1.91,3.6
2026-06-21 23:23:23.497,1.74,0.41,1.81,2.67
2026-06-21 23:23:23.498,0.95,2.93,-2.74,-0.33
2026-06-21 23:23:23.499,0.81,2.97,-0.96,-0.82
2026-06-21 23:23:23.500,0.23,2.64,0.53,0.1
2026-06-21 23:23:23.501,-1.67,1.59,-0.67,-1.17
2026-06-21 23:23:23.502,-2.46,1.04,1.99,-0.84
2026-06-21 23:23:23.503,-1.99,1.09,0.58,-2.85
2026-06-21 23:23:23.504,-2.07,0.37,-0.96,-2.78
2026-06-21 23:23:23.505,-2.17,0.15,-0.75,1.22
2026-06-21 23:23:23.506,-2.59,-0.8,-1.66,-2.04
2026-06-21 23:23:23.507,-1.43,-0.84,-2.68,-2.92
2026-06-21 23:23:23.508,-0.17,-2.11,-1.05,-0.05
2026-06-21 23:23:23.509,-0.22,-1.45,-1.3,-0.21
2026-06-21 23:23:23.510,0.94,1.05,-1.12,2.01
2026-06-21 23:23:23.511,0.82,-1.74,-2.95,2.17
2026-06-21 23:23:23.512,1.1,-2.78,-4.52,-1.33
2026-06-21 23:23:23.513,1.29,0.07,-0.17,-0.7
2026-06-21 23:23:23.514,2.24,0.37,2.52,-0.49
2026-06-21 23:23:23.515,3.53,-0.66,3.9,1.25
2026-06-21 23:23:23.516,1.71,-1.02,4.8,2.88
2026-06-21 23:23:23.517,0.55,0.4,4.63,2.09
2026-06-21 23:23:23.518,0.52,-0.2,3.48,1.86
2026-06-21 23:23:23.519,-0.33,1.37,0.05,-1.2
2026-06-21 23:23:23.520,-0.7,3.33,-1.33,-1.71
2026-06-21 23:23:23.521,-1.16,1.64,-1.03,1.82
2026-06-21 23:23:23.522,-1.49,2.66,-0.32,-1.7
2026-06-21 23:23:23.523,-2.34,2.57,4.2,-2.22
2026-06-21 23:23:23.524,-1.44,0.01,5.09,2.4
2026-06-21 23:23:23.525,-0.4,-0.06,3.91,0.79
2026-06-21 23:23:23.526,-0.57,-0.74,1.75,-2.24
2026-06-21 23:23:23.527,-0.02,-1.07,-7.82,-4.38
2026-06-21 23:23:23.528,-0.02,-0.73,-14.5,-2.35
2026-06-21 23:23:23.529,1.78,-1.87,-9.78,-2.81
2026-06-21 23:23:23.530,3.01,-1.93,-3.2,-2.25
2026-06-21 23:23:23.545,2.78,-2.21,-0.29,2.97
2026-06-21 23:23:23.546,-1.55,-0.97,2.04,2.77
2026-06-21 23:23:23.547,-2.37,-0.33,2.16,1.67
2026-06-21 23:23:23.548,0.39,1.32,1.28,2.37
2026-06-21 23:23:23.549,-2.56,1.33,2.69,0.41
2026-06-21 23:23:23.550,-0.35,-0.26,2.01,1.75
2026-06-21 23:23:23.551,3.01,0.27,2.78,2.12
2026-06-21 23:23:23.552,0.63,-1.54,4.95,-1.66
2026-06-21 23:23:23.553,0.41,-0.71,5.21,1.12
2026-06-21 23:23:23.554,-0.65,-1.15,4.29,3.38
2026-06-21 23:23:23.555,-1.83,0.95,4.75,2.48
2026-06-21 23:23:23.556,-1.06,4.58,4.31,0.16
2026-06-21 23:23:23.557,-0.26,2.15,-0.08,-4.17
2026-06-21 23:23:23.558,-0.18,2.54,-1.14,-4.51
2026-06-21 23:23:23.559,-1.05,2.11,-3.1,-1.68
2026-06-21 23:23:23.560,-0.19,-1.54,-4.1,-1.31
2026-06-21 23:23:23.561,-1.26,-1.32,-4.62,-2.51
2026-06-21 23:23:23.562,-1.17,-1.67,-7.37,-2.52
2026-06-21 23:23:23.563,0.47,-2.82,-3.96,0.53
2026-06-21 23:23:23.564,1.12,-1.57,-2.29,1
2026-06-21 23:23:23.565,2.25,0.33,0.67,0.03
2026-06-21 23:23:23.566,1.4,-1.36,3.76,1.07
2026-06-21 23:23:23.567,0.44,-0.15,-0.18,0.93
2026-06-21 23:23:23.568,2.02,-0.43,-1.4,1.56
2026-06-21 23:23:23.569,1.75,-2.24,-0.55,1.3
2026-06-21 23:23:23.570,0.64,2.48,0.97,3.18
2026-06-21 23:23:23.571,0.8,0.19,0.26,2.67
2026-06-21 23:23:23.572,-0.4,0.26,0.8,1.16
2026-06-21 23:23:23.573,-0.35,3.07,3.82,2.27
2026-06-21 23:23:23.574,-0.74,0.64,3.11,1.92
2026-06-21 23:23:23.575,-1.37,1.22,-0.05,-0.37
2026-06-21 23:23:23.576,-1.45,0.89,-0.07,-2.89
2026-06-21 23:23:23.577,-1.98,0.64,4.06,-3.55
2026-06-21 23:23:23.578,-2.22,2.36,3.27,-3.38
2026-06-21 23:23:23.579,-1.96,-1.56,1.9,-3.24
2026-06-21 23:23:23.580,-1.49,-4.02,0.86,-0.81
2026-06-21 23:23:23.581,-0.47,-1.84,-3.34,-1.26
2026-06-21 23:23:23.582,-0.33,-1.61,-2.41,-1.59
2026-06-21 23:23:23.583,-0.16,-1.13,-2.33,0.13
2026-06-21 23:23:23.584,0.94,-1.33,-2.45,-0.72
2026-06-21 23:23:23.585,0.89,-3.35,-1.86,1.02
2026-06-21 23:23:23.586,1.18,-1.11,-3.76,2.18
2026-06-21 23:23:23.587,1.55,3,-0.74,2.56
2026-06-21 23:23:23.588,1.63,1.95,1.38,2.29
2026-06-21 23:23:23.589,1.73,1.21,3.36,0.29
2026-06-21 23:23:23.590,2.22,-0.52,5.23,-0.39
2026-06-21 23:23:23.591,1.44,-1.7,1.47,1.32
2026-06-21 23:23:23.592,1.66,-0.58,-1.29,2.09
2026-06-21 23:23:23.593,1.75,-0.1,-1.6,1.07
2026-06-21 23:23:23.594,1,2.48,-1.73,0.46
2026-06-21 23:23:23.581,2.43,2.42,-1.96,-1.05
2026-06-21 23:23:23.582,0.46,2.1,-2.9,-1.79
2026-06-21 23:23:23.583,-5.26,2.05,-1.11,-0.48
2026-06-21 23:23:23.584,-6.69,0.39,1.74,0.23
2026-06-21 23:23:23.585,-4.8,0.85,2.08,-1.7
2026-06-21 23:23:23.586,-2.96,-0.25,0.72,-2.94
2026-06-21 23:23:23.587,-0.95,-1.81,-0.32,-1.43
2026-06-21 23:23:23.588,-1.52,-0.06,-0.8,-1.12
2026-06-21 23:23:23.589,-1.07,-0.42,0.32,1.19
2026-06-21 23:23:23.590,2.39,-1.01,-0.21,2.36
2026-06-21 23:23:23.591,2.37,-1.91,-2.55,-1.75
2026-06-21 23:23:23.592,2.28,-3.21,-2.08,-1.05
2026-06-21 23:23:23.593,2.94,-1.24,0.43,0.29
2026-06-21 23:23:23.594,1.53,-0.42,2.34,0.18
2026-06-21 23:23:23.595,1.69,-1.86,2.92,1.09
2026-06-21 23:23:23.596,1.53,0.3,3.78,0.8
2026-06-21 23:23:23.597,1.85,2.14,3.68,1.57
2026-06-21 23:23:23.598,1.8,1.03,-2.36,0.87
2026-06-21 23:23:23.599,0.26,1.19,-4.51,1.1
2026-06-21 23:23:23.600,-0.35,1.32,1.49,-0.08
2026-06-21 23:23:23.601,-1.36,0.62,-0.73,-0.99
2026-06-21 23:23:23.602,-1.3,1.2,-3.78,-0.72
2026-06-21 23:23:23.603,-1.16,1.04,0.18,-1.48
2026-06-21 23:23:23.604,-2.52,0.68,0.31,-0.58
2026-06-21 23:23:23.605,-2.05,1.11,-1.07,-0.19
2026-06-21 23:23:23.606,0.03,-0.25,-0.88,-0.48
2026-06-21 23:23:23.607,-0.19,-0.38,0.2,0
2026-06-21 23:23:23.608,-0.84,-0.49,1.32,0.08
2026-06-21 23:23:23.609,0.32,-0.05,-0.72,-0.92
2026-06-21 23:23:23.610,-0.07,-0.43,-0.57,1.68
2026-06-21 23:23:23.611,1.01,-1.02,0.15,3.19
2026-06-21 23:23:23.612,1.18,0.31,-1.07,-0.33
2026-06-21 23:23:23.613,-0.19,-1.07,-3.55,-0.34
2026-06-21 23:23:23.614,0.55,-1.41,-0.29,0.73
2026-06-21 23:23:23.615,1.19,0.68,2.28,-0.91
2026-06-21 23:23:23.616,0.33,-0.61,-2.89,0.43
2026-06-21 23:23:23.617,0.57,-0.45,-0.26,0.98
2026-06-21 23:23:23.618,0.53,-0.08,4.24,0.52
2026-06-21 23:23:23.619,-0.27,-0.1,3.46,0.78
2026-06-21 23:23:23.620,-0.87,0.97,3.1,1.21
2026-06-21 23:23:23.621,-1.06,1.39,2.58,0.29
2026-06-21 23:23:23.622,-1.2,0,0.32,-1.09
2026-06-21 23:23:23.623,0.16,0.94,-0.21,-1.01
2026-06-21 23:23:23.624,-0.31,2.66,0.68,-2.28
2026-06-21 23:23:23.625,-1.25,-0.78,-1.01,-2.05
2026-06-21 23:23:23.626,-0.4,-0.07,-2.75,-1.48
2026-06-21 23:23:23.627,-0.75,1.19,-3.56,-0.47
2026-06-21 23:23:23.628,0.95,-1.18,-3.61,-1.12
2026-06-21 23:23:23.629,1.48,-1.9,-0.13,-1.19
2026-06-21 23:23:23.630,1.69,-1.57,2.08,1.94
2026-06-21 23:23:23.646,1.39,0.57,-1,1
2026-06-21 23:23:23.647,1.26,0.58,0.31,0.33
2026-06-21 23:23:23.648,-0.42,-2.8,1.84,2.21
2026-06-21 23:23:23.649,-2.39,-0.73,-0.55,0.45
2026-06-21 23:23:23.650,0.07,1.16,-0.37,0.33
2026-06-21 23:23:23.651,0.85,-0.97,-1.09,1.34
2026-06-21 23:23:23.652,-0.46,0.64,-3.07,3.17
2026-06-21 23:23:23.653,0.37,2.63,-0.3,0.86
2026-06-21 23:23:23.654,-0.75,-0.15,4.22,-2.12
2026-06-21 23:23:23.655,-1.64,-0.04,7.63,2.14
2026-06-21 23:23:23.656,-2.15,-0.06,4.6,2.53
2026-06-21 23:23:23.657,-0.87,0.31,-1.54,-0.7
2026-06-21 23:23:23.658,0.43,2.05,-1.75,-2.35
2026-06-21 23:23:23.659,-0.36,0.05,-1.28,-1.45
2026-06-21 23:23:23.660,0.21,0.19,-0.32,-2.13
2026-06-21 23:23:23.661,-0.2,-0.79,0.69,-2.47
2026-06-21 23:23:23.662,0.46,-0.77,-1.72,0.27
2026-06-21 23:23:23.663,0.29,-0.05,-2.46,-0.27
2026-06-21 23:23:23.664,-0.7,-0.98,-0.79,-2.27
2026-06-21 23:23:23.665,0.19,-0.38,-2.18,-1.32
2026-06-21 23:23:23.666,1.17,-1.26,-1.81,-1.51
2026-06-21 23:23:23.667,1.56,-1.65,0.67,0.76
2026-06-21 23:23:23.668,1.16,-1.44,0.66,2.35
2026-06-21 23:23:23.669,0.04,-0.93,-1.98,0.77
2026-06-21 23:23:23.670,0.92,0.25,-3.02,3.12
2026-06-21 23:23:23.671,1.11,0.63,-0.01,3.35
2026-06-21 23:23:23.672,0.48,2.26,3.76,0.51
2026-06-21 23:23:23.673,0.26,0.21,4.98,1.17
2026-06-21 23:23:23.674,-0.13,-0.29,4.09,0.46
2026-06-21 23:23:23.675,-0.55,0.96,4.83,-0.67
2026-06-21 23:23:23.676,-0.68,-0.02,2.51,0.96
2026-06-21 23:23:23.677,-1.06,0.78,-5.42,0.07
2026-06-21 23:23:23.678,-1.79,-0.46,-6.4,-3.36
2026-06-21 23:23:23.679,-0.98,1.42,-0.87,-3.54
2026-06-21 23:23:23.680,-1.04,1.79,0.09,-2.06
2026-06-21 23:23:23.681,-1.12,-0.49,-0.93,-1.24
2026-06-21 23:23:23.682,-0.74,1.11,-0.99,0.45
2026-06-21 23:23:23.683,-0.19,-1.24,0.94,-1.47
2026-06-21 23:23:23.684,-0.14,-0.44,3.05,-2.12
2026-06-21 23:23:23.685,-0.96,1.21,2.61,0.55
2026-06-21 23:23:23.686,0.66,-1.77,2.03,1.79
2026-06-21 23:23:23.687,1.82,-1.15,1.34,3.34
2026-06-21 23:23:23.688,1.36,-1.67,-3.46,1.44
2026-06-21 23:23:23.689,1.86,-1.2,-6.76,-0.52
2026-06-21 23:23:23.690,1.66,0.92,-2.88,-0.8
2026-06-21 23:23:23.691,1.66,-0.37,-0.96,-0.12
2026-06-21 23:23:23.692,1.61,-0.23,-0.51,3.2
2026-06-21 23:23:23.693,2.16,0.22,3.02,1.2
2026-06-21 23:23:23.694,1.34,0.17,3.95,-0.88
2026-06-21 23:23:23.695,1.22,0.57,1.89,-0.02
2026-06-21 23:23:23.683,1.98,0.25,-0.95,-0.6
2026-06-21 23:23:23.684,-2.11,0.62,-1.74,-1.57
2026-06-21 23:23:23.685,-6.63,-0.04,-0.53,0.31
2026-06-21 23:23:23.686,-4.41,1.22,0.11,2.25
2026-06-21 23:23:23.687,-1.63,2.69,2.19,0.38
2026-06-21 23:23:23.688,-1.75,-0.12,-0.56,-2.81
2026-06-21 23:23:23.689,-1.19,0.16,-1.29,-2.56
2026-06-21 23:23:23.690,-1.67,0.74,-0.95,-0.31
2026-06-21 23:23:23.691,1.1,-1.39,-1.55,0.35
2026-06-21 23:23:23.692,1.38,-1.15,2.12,-0.96
2026-06-21 23:23:23.693,0.9,-1.4,1.16,0.41
2026-06-21 23:23:23.694,2.07,-0.89,-1.33,1.13
2026-06-21 23:23:23.695,0.79,-1.37,1.05,-0.14
2026-06-21 23:23:23.696,1.4,-1.05,0.93,-0.4
2026-06-21 23:23:23.697,1.46,0.42,0.78,-0.04
2026-06-21 23:23:23.698,0.71,0.39,4.73,2.51
2026-06-21 23:23:23.699,0.94,0.9,3.09,0.5
2026-06-21 23:23:23.700,0.5,0.74,-1.36,-1.16
2026-06-21 23:23:23.701,0.48,0.68,-1.83,-0.75
2026-06-21 23:23:23.702,0,0.74,-2.91,0.55
2026-06-21 23:23:23.703,-0.39,0.29,-4.32,2.22
2026-06-21 23:23:23.704,0.21,0.42,0.46,-0.25
2026-06-21 23:23:23.705,0.1,0.35,2.98,-1.56
2026-06-21 23:23:23.706,-0.26,-0.15,1.89,0.05
2026-06-21 23:23:23.707,-1.2,0.11,-2.08,-0.38
2026-06-21 23:23:23.708,-2.15,-0.87,-4.85,0.33
2026-06-21 23:23:23.709,-1.2,-0.28,-3.27,-0.78
2026-06-21 23:23:23.710,-0.68,0.96,-1.14,-2.03
2026-06-21 23:23:23.711,-2.77,-0.86,0.37,1.49
2026-06-21 23:23:23.712,-0.43,0.21,2.29,3.72
2026-06-21 23:23:23.713,0.77,0.04,3.4,2.35
2026-06-21 23:23:23.714,-0.01,-0.87,1.27,-0.98
2026-06-21 23:23:23.715,0.86,1.44,-1.52,-1.69
2026-06-21 23:23:23.716,0.08,0.33,-0.76,-0.43
2026-06-21 23:23:23.717,0.83,0.38,1.71,-1.35
2026-06-21 23:23:23.718,0.61,0.53,-0.41,-1.04
2026-06-21 23:23:23.719,0.66,-0.4,0.31,1.74
2026-06-21 23:23:23.720,1.03,-0.12,2,0.11
2026-06-21 23:23:23.721,0.31,-0.59,1.07,-0.85
2026-06-21 23:23:23.722,0.04,-0.07,0.27,0.14
2026-06-21 23:23:23.723,-0.03,0.37,0.61,-0.51
2026-06-21 23:23:23.724,-0.67,-0.23,0.71,1.31
2026-06-21 23:23:23.725,-0.08,0.14,1.56,0.39
2026-06-21 23:23:23.726,-0.31,0.18,0.17,-1.1
2026-06-21 23:23:23.727,-0.53,0.38,-1.56,-0.89
2026-06-21 23:23:23.728,1.26,0.57,-1.04,-0.98
2026-06-21 23:23:23.729,-0.03,-1.25,0.12,0.77
2026-06-21 23:23:23.730,-0.78,-1.19,0.54,-1
2026-06-21 23:23:23.731,1.53,-0.53,-1.22,0.62
2026-06-21 23:23:23.732,2.64,-1.23,-2.24,2.01
2026-06-21 23:23:23.746,2.55,-1.84,-3.08,-0.4
2026-06-21 23:23:23.747,0.08,-1.24,-2.34,0.52
2026-06-21 23:23:23.748,-4.62,-2.8,-6.45,-0.55
2026-06-21 23:23:23.749,-4.47,-1.96,-3.88,0.88
2026-06-21 23:23:23.750,1.38,4.95,6.72,1.89
2026-06-21 23:23:23.751,0.62,5.9,5.88,-1.5
2026-06-21 23:23:23.752,-2.54,1.96,1.59,-0.51
2026-06-21 23:23:23.753,-0.12,1.71,0.46,-1.43
2026-06-21 23:23:23.754,-0.93,-0.35,-1.27,-2.85
2026-06-21 23:23:23.755,-0.47,-1.3,0.83,3.45
2026-06-21 23:23:23.756,1.95,-0.63,1.84,4.14
2026-06-21 23:23:23.757,0.01,-0.47,1.29,-1.01
2026-06-21 23:23:23.758,0.46,0.34,1.28,-1.08
2026-06-21 23:23:23.759,1.35,0.13,1.09,0.04
2026-06-21 23:23:23.760,0.14,0.21,-0.5,-0.83
2026-06-21 23:23:23.761,-0.13,-1.83,0.54,-0.95
2026-06-21 23:23:23.762,0.91,-0.78,2.35,-0.23
2026-06-21 23:23:23.763,1.78,1.9,-2.27,-0.87
2026-06-21 23:23:23.764,1.11,-0.36,-3.14,-0.16
2026-06-21 23:23:23.765,0.53,-1.83,-2.77,0.2
2026-06-21 23:23:23.766,1.39,-0.75,-1.94,-1.93
2026-06-21 23:23:23.767,-0.21,-1.4,-3.18,0.89
2026-06-21 23:23:23.768,-0.76,-0.72,-1.43,0.38
2026-06-21 23:23:23.769,1.19,-1.02,3.92,-1.51
2026-06-21 23:23:23.770,-1.07,-0.36,2.72,2.56
2026-06-21 23:23:23.771,-0.53,0.92,0.89,0.94
2026-06-21 23:23:23.772,0.48,0.01,-1.59,0.25
2026-06-21 23:23:23.773,-0.86,1.37,-2.16,1.33
2026-06-21 23:23:23.774,-0.25,1.74,0.38,-0.61
2026-06-21 23:23:23.775,-0.72,0.05,-0.43,0.33
2026-06-21 23:23:23.776,-2.31,0.19,-1.62,0.73
2026-06-21 23:23:23.777,-1.31,-0.13,0.52,-0.46
2026-06-21 23:23:23.778,-0.14,0.12,-0.63,-0.92
2026-06-21 23:23:23.779,-0.08,1.01,-2.18,-0.28
2026-06-21 23:23:23.780,-0.76,0.58,1.36,0.13
2026-06-21 23:23:23.781,-1.01,-0.27,2.77,0.14
2026-06-21 23:23:23.782,-0.26,-0.74,2.28,-0.13
2026-06-21 23:23:23.783,-0.15,0.23,4.03,-1.81
2026-06-21 23:23:23.784,-0.41,-0.53,2.37,-2.62
2026-06-21 23:23:23.785,0.9,-1.36,0.54,0.22
2026-06-21 23:23:23.786,1.68,-1.8,1.79,1.91
2026-06-21 23:23:23.787,1.24,-1.16,0.98,0.46
2026-06-21 23:23:23.788,1.21,1.35,-5.97,-0.12
2026-06-21 23:23:23.789,1.52,-0.24,-6.74,-0.52
2026-06-21 23:23:23.790,1.33,-0.54,0.45,-0.05
2026-06-21 23:23:23.791,0.92,0.61,2.89,0.61
2026-06-21 23:23:23.792,1.35,-0.8,2.31,0.38
2026-06-21 23:23:23.793,0.99,0.95,-1.68,0.01
2026-06-21 23:23:23.794,0.65,0.98,-0.48,0.47
2026-06-21 23:23:23.795,0.25,1.4,-0.47,1.07
2026-06-21 23:23:23.781,1.77,2.6,-2.65,0.42
2026-06-21 23:23:23.782,0.32,-0.11,3.4,-0.02
2026-06-21 23:23:23.783,-4.16,-0.46,2.26,-2.02
2026-06-21 23:23:23.784,-4.92,0.37,-2.17,0.07
2026-06-21 23:23:23.785,-3.93,-0.42,1.62,2.19
2026-06-21 23:23:23.786,-1.13,-0.78,1.59,-2.31
2026-06-21 23:23:23.787,-0.7,1.96,-2.58,-1.5
2026-06-21 23:23:23.788,-1.36,2.09,-2.47,-0.34
2026-06-21 23:23:23.789,0.16,-0.4,-1.98,-2.42
2026-06-21 23:23:23.790,0.4,-1.01,-2.31,-0.61
2026-06-21 23:23:23.791,2.02,-2.15,0.64,-0.5
2026-06-21 23:23:23.792,0.83,-0.31,1.77,0.11
2026-06-21 23:23:23.793,-0.09,-0.86,1.23,2.82
2026-06-21 23:23:23.794,1.84,-1.74,2.95,1.44
2026-06-21 23:23:23.795,1.35,-1,2.6,1.33
2026-06-21 23:23:23.796,1.38,-2.8,4.68,2.76
2026-06-21 23:23:23.797,1.53,-0.62,3.93,0.27
2026-06-21 23:23:23.798,1,1.02,-3.55,-1.14
2026-06-21 23:23:23.799,-0.07,1.64,-4.38,-1.11
2026-06-21 23:23:23.800,-0.05,2.92,-0.31,-0.09
2026-06-21 23:23:23.801,0.76,0.42,-1.02,1.63
2026-06-21 23:23:23.802,-0.24,0.08,-0.43,-0.71
2026-06-21 23:23:23.803,0.39,1.2,0.17,-1.5
2026-06-21 23:23:23.804,-0.47,1.23,-0.88,-0.57
2026-06-21 23:23:23.805,-1.99,0.95,-0.21,-2.76
2026-06-21 23:23:23.806,-1.33,0.83,-0.04,-0.88
2026-06-21 23:23:23.807,-1.93,-0.32,-0.43,0.9
2026-06-21 23:23:23.808,-1.99,-0.97,0.07,-0.38
2026-06-21 23:23:23.809,-0.23,0,2.83,1.91
2026-06-21 23:23:23.810,0.49,-1.12,-0.57,3.04
2026-06-21 23:23:23.811,-0.12,-1,-5.69,-0.11
2026-06-21 23:23:23.812,0.56,-1.24,-1.49,-1.51
2026-06-21 23:23:23.813,0.58,-0.99,0.44,0.83
2026-06-21 23:23:23.814,0.61,-1.26,-2.77,0.94
2026-06-21 23:23:23.815,1.22,-0.9,0.19,-0.16
2026-06-21 23:23:23.816,0.45,1.37,2.99,0.99
2026-06-21 23:23:23.817,-0.53,0.6,1.46,1.35
2026-06-21 23:23:23.818,0.21,1.1,1.46,0.35
2026-06-21 23:23:23.819,0.1,1.95,0.8,-0.8
2026-06-21 23:23:23.820,-0.8,-0.1,-0.07,-1.07
2026-06-21 23:23:23.821,0.12,-0.55,1,0.07
2026-06-21 23:23:23.822,-0.23,-0.1,2.04,-1.02
2026-06-21 23:23:23.823,-0.35,0.16,1.52,-0.44
2026-06-21 23:23:23.824,0.59,-0.42,0.73,-1.2
2026-06-21 23:23:23.825,0.91,-1.61,0.59,-0.66
2026-06-21 23:23:23.826,0.21,-0.9,2.74,0.21
2026-06-21 23:23:23.827,-0.13,1.39,0.85,-1.65
2026-06-21 23:23:23.828,1.02,2.68,-4.1,-1.33
2026-06-21 23:23:23.829,1.16,-0.4,-3.2,0.43
2026-06-21 23:23:23.830,1.3,-1.35,-2.99,1.18
2026-06-21 23:23:23.845,2.41,-0.54,-2.97,0.01
2026-06-21 23:23:23.846,-0.2,0.5,1.04,1.31
2026-06-21 23:23:23.847,-0.23,1.25,0.78,2.62
2026-06-21 23:23:23.848,1.13,-0.82,0.79,-0.45
2026-06-21 23:23:23.849,-1.64,-1.36,2.61,-0.19
2026-06-21 23:23:23.850,-2.45,0.24,-0.05,1.34
2026-06-21 23:23:23.851,-3.67,0.93,-1.12,-1.58
2026-06-21 23:23:23.852,-2.32,0.52,-1.07,0.07
2026-06-21 23:23:23.853,-0.36,-0.07,-1.13,-1.01
2026-06-21 23:23:23.854,-0.32,-0.1,-2.39,-0.22
2026-06-21 23:23:23.855,0.8,0.3,-3.93,3
2026-06-21 23:23:23.856,-0.46,-0.07,-4.14,-0.05
2026-06-21 23:23:23.857,0.04,-0.42,2,-0.03
2026-06-21 23:23:23.858,1.68,-0.17,7.5,1.53
2026-06-21 23:23:23.859,0.22,0.13,4.85,0.71
2026-06-21 23:23:23.860,1.09,-0.34,2.68,-1.31
2026-06-21 23:23:23.861,1.03,-0.27,2.04,-3.24
2026-06-21 23:23:23.862,0.13,0.3,-2.86,-1.2
2026-06-21 23:23:23.863,-0.68,0.92,-4.09,-0.29
2026-06-21 23:23:23.864,-0.65,-0.61,1.48,-2.27
2026-06-21 23:23:23.865,0.66,-0.89,0.9,-2.44
2026-06-21 23:23:23.866,0.07,-0.63,-2.61,1.66
2026-06-21 23:23:23.867,1.2,-0.99,-1.2,2.15
2026-06-21 23:23:23.868,1.33,-0.43,-0.62,-1.57
2026-06-21 23:23:23.869,0.03,0.51,0.98,-1.26
2026-06-21 23:23:23.870,0.16,-0.17,2.79,0.3
2026-06-21 23:23:23.871,0.27,-0.34,0.51,2.77
2026-06-21 23:23:23.872,-0.19,0.07,0.74,2.61
2026-06-21 23:23:23.873,-0.25,-1.37,-2.14,0.66
2026-06-21 23:23:23.874,-0.54,0.37,-4.61,2.56
2026-06-21 23:23:23.875,-0.6,2.14,-0.94,0.11
2026-06-21 23:23:23.876,-0.77,2.12,2.23,-2.86
2026-06-21 23:23:23.877,-0.69,1.74,7.93,1.57
2026-06-21 23:23:23.878,0.03,0.32,8.03,1
2026-06-21 23:23:23.879,-0.58,-1.68,-0.9,-2.12
2026-06-21 23:23:23.880,-1.3,-0.03,-4.33,-3
2026-06-21 23:23:23.881,-1.06,1.41,-3.49,-1.26
2026-06-21 23:23:23.882,-0.09,-0.56,-2.75,2.26
2026-06-21 23:23:23.883,0.17,-2.38,-2.11,0.6
2026-06-21 23:23:23.884,0.38,-1.15,-1.21,-0.75
2026-06-21 23:23:23.885,0.64,-0.46,0.04,-0.52
2026-06-21 23:23:23.886,-0.08,-1.56,-0.53,-0.55
2026-06-21 23:23:23.887,1.19,0.07,-0.07,-0.26
2026-06-21 23:23:23.888,1.66,1.4,0.05,0.03
2026-06-21 23:23:23.889,0.03,-0.24,-1.01,-0.09
2026-06-21 23:23:23.890,1.07,1.77,-0.11,-0.86
2026-06-21 23:23:23.891,1.78,1.48,-0.6,1.13
2026-06-21 23:23:23.892,1.4,-0.66,-0.25,2.32
2026-06-21 23:23:23.893,0.26,0.83,0.46,1.04
2026-06-21 23:23:23.894,0.18,-0.19,-0.65,-0.44
2026-06-21 23:23:23.880,0.41,-0.44,-0.77,-1.35
2026-06-21 23:23:23.881,-2.81,-0.08,0.29,0.89
2026-06-21 23:23:23.882,-3.97,-0.22,1.45,0.96
2026-06-21 23:23:23.883,-1.16,0.65,1.28,0.19
2026-06-21 23:23:23.884,0.43,1.44,0.49,-1.64
2026-06-21 23:23:23.885,-1.15,1.29,-0.16,-3.43
2026-06-21 23:23:23.886,-1.56,0.67,-1,-1.01
2026-06-21 23:23:23.887,-0.43,-0.49,-0.29,1.06
2026-06-21 23:23:23.888,0.29,-0.86,1.81,-0.45
2026-06-21 23:23:23.889,0.34,-0.59,2.5,1.13
2026-06-21 23:23:23.890,1.08,0.02,3.23,2.3
2026-06-21 23:23:23.891,1.92,-0.55,4.1,-1.23
2026-06-21 23:23:23.892,1.57,-0.69,3.24,0.67
2026-06-21 23:23:23.893,1.14,-0.36,1.27,0.74
2026-06-21 23:23:23.894,0.14,-0.71,-1.64,0.93
2026-06-21 23:23:23.895,-1.34,0.03,-2.96,0.2
2026-06-21 23:23:23.896,-0.6,-0.16,-4.24,-3.07
2026-06-21 23:23:23.897,0.73,-0.37,-4.37,0.97
2026-06-21 23:23:23.898,1.07,-1.38,-0.56,2.77
2026-06-21 23:23:23.899,-0.59,-3.54,-0.22,-1.09
2026-06-21 23:23:23.900,-1.07,-0.92,-0.05,0.04
2026-06-21 23:23:23.901,0.47,-0.2,1.82,0.75
2026-06-21 23:23:23.902,0.13,-2.09,0.17,-0.78
2026-06-21 23:23:23.903,0.17,2.28,-1.76,-1.15
2026-06-21 23:23:23.904,-0.13,7.04,-3.13,0.18
2026-06-21 23:23:23.905,0.09,4.08,-2.15,1.99
2026-06-21 23:23:23.906,-0.17,-0.54,-1.08,0.52
2026-06-21 23:23:23.907,-0.71,-0.49,-1.76,-1.08
2026-06-21 23:23:23.908,0.05,0.81,1.04,0.29
2026-06-21 23:23:23.909,0.02,0.24,3.48,2.14
2026-06-21 23:23:23.910,-0.39,-2.61,3.24,0.17
2026-06-21 23:23:23.911,-0.1,-1.04,-0.11,-1.99
2026-06-21 23:23:23.912,-0.13,0.3,-0.92,-1.61
2026-06-21 23:23:23.913,-0.2,-1.39,0.57,-0.97
2026-06-21 23:23:23.914,0.8,0.43,0.26,-1.95
2026-06-21 23:23:23.915,0.45,-1.35,0.71,-1.08
2026-06-21 23:23:23.916,-0.81,-2.21,1.94,-0.25
2026-06-21 23:23:23.917,-0.35,2.67,2.49,-0.69
2026-06-21 23:23:23.918,1.43,1.26,1.12,-0.3
2026-06-21 23:23:23.919,0.59,-0.98,-2.33,1.15
2026-06-21 23:23:23.920,-1.07,-0.21,-2.77,1.95
2026-06-21 23:23:23.921,-0.64,-0.9,-0.23,-0.18
2026-06-21 23:23:23.922,-0.37,-1.56,-0.21,-1.35
2026-06-21 23:23:23.923,-0.01,0.62,-0.6,1.15
2026-06-21 23:23:23.924,0.52,1.77,0.18,0.78
2026-06-21 23:23:23.925,1.51,-1.22,1.38,-0.31
2026-06-21 23:23:23.926,1.72,-1.1,1.11,2.21
2026-06-21 23:23:23.927,2.25,-1.71,1.14,-0.34
2026-06-21 23:23:23.928,1.63,-0.67,0.61,-1.63
2026-06-21 23:23:23.929,1.24,2.04,1.21,0.38
2026-06-21 23:23:23.945,-1.54,1.04,2.24,-0.98
2026-06-21 23:23:23.946,-5.84,0.05,0.63,-0.24
2026-06-21 23:23:23.947,-2.96,0.05,2.46,3.43
2026-06-21 23:23:23.948,-0.95,1.77,1.63,2.97
2026-06-21 23:23:23.949,-2.23,2.18,-4.66,0.72
2026-06-21 23:23:23.950,0.65,3.02,-7.51,0.5
2026-06-21 23:23:23.951,2.52,-1.34,-7.08,-1.34
2026-06-21 23:23:23.952,0.87,-8.14,-5.55,-1.96
2026-06-21 23:23:23.953,0.52,-1.84,2.85,-0.18
2026-06-21 23:23:23.954,0.52,1.27,6.55,0.96
2026-06-21 23:23:23.955,0.68,-0.22,3.02,-0.42
2026-06-21 23:23:23.956,0.58,2.22,2.04,-2.66
2026-06-21 23:23:23.957,-0.12,0.95,2.05,-1.98
2026-06-21 23:23:23.958,-1.52,0.2,3.72,-0.8
2026-06-21 23:23:23.959,-0.84,0.2,-0.5,0.74
2026-06-21 23:23:23.960,0.39,0.75,-3.24,2.03
2026-06-21 23:23:23.961,1.03,0,-0.8,1.09
2026-06-21 23:23:23.962,-0.28,-0.05,-3.02,-0.34
2026-06-21 23:23:23.963,-0.01,1.3,-1.63,-1.92
2026-06-21 23:23:23.964,0.35,-0.02,0.31,-2.42
2026-06-21 23:23:23.965,-0.09,-1.26,-0.47,-1.16
2026-06-21 23:23:23.966,0.88,0.09,3.63,0.4
2026-06-21 23:23:23.967,1.36,1.02,-1.47,0.14
2026-06-21 23:23:23.968,1.39,0.23,-5.47,0.02
2026-06-21 23:23:23.969,0.31,-0.53,-2.92,2.2
2026-06-21 23:23:23.970,1.23,0.27,1.23,2.62
2026-06-21 23:23:23.971,-0.13,2.94,5.29,2.12
2026-06-21 23:23:23.972,-1.16,0.86,4.68,0.25
2026-06-21 23:23:23.973,-0.5,-1.38,2.93,-0.92
2026-06-21 23:23:23.974,-1.27,0.6,-0.84,0.26
2026-06-21 23:23:23.975,-0.53,0.35,0.84,0.95
2026-06-21 23:23:23.976,-0.74,-0.23,2,0.4
2026-06-21 23:23:23.977,-1.92,0.15,-0.67,-1.94
2026-06-21 23:23:23.978,-0.05,0.53,0.54,-1.67
2026-06-21 23:23:23.979,-0.16,-0.25,-3.78,-0.06
2026-06-21 23:23:23.980,-0.69,-0.29,-4.98,-0.49
2026-06-21 23:23:23.981,0.09,-0.79,0.98,-1.27
2026-06-21 23:23:23.982,-1.41,-3.73,0.24,-0.94
2026-06-21 23:23:23.983,-1.06,-2.71,0.88,-0.13
2026-06-21 23:23:23.984,0.18,-2.81,0.83,1
2026-06-21 23:23:23.985,0.08,-2.88,1.28,0.92
2026-06-21 23:23:23.986,0.29,-0.32,2.04,1.31
2026-06-21 23:23:23.987,0.97,2.46,-2.38,0.2
2026-06-21 23:23:23.988,1.32,5.07,-2.12,-0.95
2026-06-21 23:23:23.989,1.75,4.72,-1.67,-0.58
2026-06-21 23:23:23.990,0.81,1.96,-4.01,-0.4
2026-06-21 23:23:23.991,0.95,-0.31,-1.77,-0.56
2026-06-21 23:23:23.992,1.2,-0.73,0.07,-0.16
2026-06-21 23:23:23.993,0.96,-2.08,3.07,1.04
2026-06-21 23:23:23.994,1.82,-0.86,5.99,-0.16
2026-06-21 23:23:23.981,1.8,0.88,2.75,0.37
2026-06-21 23:23:23.982,0.16,-1.34,-2.98,2.31
2026-06-21 23:23:23.983,-2.04,1.07,-5.01,-0.52
2026-06-21 23:23:23.984,-3.18,2.41,-3.61,-1.06
2026-06-21 23:23:23.985,-3.43,-0.97,-1.59,0.78
2026-06-21 23:23:23.986,-2.8,0.74,-0.04,0.62
2026-06-21 23:23:23.987,-0.79,1.55,1.14,1.48
2026-06-21 23:23:23.988,1.22,-0.78,2.12,0.7
2026-06-21 23:23:23.989,-0.67,-1.37,0.8,0.78
2026-06-21 23:23:23.990,1.21,-0.75,-1.5,-0.88
2026-06-21 23:23:23.991,0.77,-1.04,1.02,-1.48
2026-06-21 23:23:23.992,-3.06,-1.42,2.83,-2.57
2026-06-21 23:23:23.993,0.13,-0.73,1.71,-0.69
2026-06-21 23:23:23.994,2.41,-0.46,2.25,0.47
2026-06-21 23:23:23.995,-0.44,-0.45,1.56,-1.15
2026-06-21 23:23:23.996,0.79,-0.24,2.82,-0.18
2026-06-21 23:23:23.997,1.82,-0.32,4.09,0.18
2026-06-21 23:23:23.998,0.98,0.03,3.52,1.11
2026-06-21 23:23:23.999,0.86,-0.4,-1.62,1.33
2026-06-21 23:23:24.000,0.45,0.28,-6.21,0.04
2026-06-21 23:23:24.001,0.75,1.84,-4.08,-1.24
2026-06-21 23:23:24.002,0.08,0.24,-1.17,-0.37
2026-06-21 23:23:24.003,-0.11,-0.61,0.59,-0.13
2026-06-21 23:23:24.004,-0.12,-0.1,0.43,-1.08
2026-06-21 23:23:24.005,-1.04,0.09,0.26,0.12
2026-06-21 23:23:24.006,-0.88,0.3,1.28,1.82
2026-06-21 23:23:24.007,0.38,0.74,-2.92,2.63
2026-06-21 23:23:24.008,-1.68,0.72,-3.99,3.08
2026-06-21 23:23:24.009,-0.37,-1.08,-1.69,0.56
2026-06-21 23:23:24.010,-0.3,0.63,-4.07,0.68
2026-06-21 23:23:24.011,-0.27,0.12,-1.03,0.7
2026-06-21 23:23:24.012,1.26,-0.83,2.42,0.16
2026-06-21 23:23:24.013,0.29,2.45,1.94,-1.92
2026-06-21 23:23:24.014,0.02,-1.09,1.75,-2.67
2026-06-21 23:23:24.015,-0.24,-1.77,0.57,-0.95
2026-06-21 23:23:24.016,0.63,0.88,2.12,-1.73
2026-06-21 23:23:24.017,-0.05,-0.55,2.15,-0.96
2026-06-21 23:23:24.018,-1.17,0.98,0.99,1.42
2026-06-21 23:23:24.019,-0.42,0.95,3.21,0.32
2026-06-21 23:23:24.020,-0.94,-1.06,2,-1.78
2026-06-21 23:23:24.021,-0.27,-0.06,-0.4,-1.66
2026-06-21 23:23:24.022,0.51,-0.05,-0.19,-1.16
2026-06-21 23:23:24.023,0.25,-1.1,-0.73,0.59
2026-06-21 23:23:24.024,1.12,-0.72,-1.43,0.9
2026-06-21 23:23:24.025,0.9,1.81,-0.99,3.2
2026-06-21 23:23:24.026,1.1,-0.04,-0.22,2.9
2026-06-21 23:23:24.027,0.76,-1.46,-1.23,-2.14
2026-06-21 23:23:24.028,0.51,0.61,-2.06,-1.04
2026-06-21 23:23:24.029,0.55,-0.09,-1.4,0.93
2026-06-21 23:23:24.030,1.74,0.01,0.2,0
2026-06-21 23:23:24.046,2.58,-1.25,0.95,-1.74
2026-06-21 23:23:24.047,-1,0.46,-0.7,-1.56
2026-06-21 23:23:24.048,-3.48,1.71,0.38,1.12
2026-06-21 23:23:24.049,-1.4,0.86,-0.1,-0.36
2026-06-21 23:23:24.050,-1.2,2.05,-1.7,-0.63
2026-06-21 23:23:24.051,-1.81,-0.01,-0.91,2.19
2026-06-21 23:23:24.052,-1.6,-1,-0.05,0.63
2026-06-21 23:23:24.053,-1.82,-0.37,1.08,0.18
2026-06-21 23:23:24.054,0.51,-0.85,2.35,0.19
2026-06-21 23:23:24.055,2.62,-0.69,0.6,-1.83
2026-06-21 23:23:24.056,1.14,-0.26,0.67,0.15
2026-06-21 23:23:24.057,-1.06,1.6,2.07,0.82
2026-06-21 23:23:24.058,-0.47,0.55,2.46,-2.93
2026-06-21 23:23:24.059,1.59,-0.59,2.05,-2.58
2026-06-21 23:23:24.060,1.19,0.18,1.78,2.81
2026-06-21 23:23:24.061,-0.46,-0.37,2.35,1.27
2026-06-21 23:23:24.062,-0.37,0.59,0.51,-0.73
2026-06-21 23:23:24.063,0.75,-0.31,-4.6,0.56
2026-06-21 23:23:24.064,2.02,-1.33,-7.05,-0.61
2026-06-21 23:23:24.065,0.45,-1.12,-3.06,1.34
2026-06-21 23:23:24.066,-1.35,-0.85,2.07,1.47
2026-06-21 23:23:24.067,1.2,-0.35,2.09,-0.9
2026-06-21 23:23:24.068,1.28,-1.14,-2.53,-0.4
2026-06-21 23:23:24.069,-2.71,-1.22,-0.91,-0.3
2026-06-21 23:23:24.070,-1.64,2.82,0.54,0.42
2026-06-21 23:23:24.071,0.32,3.29,-3.48,-1.83
2026-06-21 23:23:24.072,0.31,-1.03,-3.46,-0.79
2026-06-21 23:23:24.073,0.19,0.88,-1.09,2.74
2026-06-21 23:23:24.074,-0.15,1.2,-0.42,0.34
2026-06-21 23:23:24.075,0.15,-0.56,3.78,1.34
2026-06-21 23:23:24.076,-0.49,-1.32,3.07,2.9
2026-06-21 23:23:24.077,-1.43,-0.69,0.91,0.09
2026-06-21 23:23:24.078,-0.57,1.95,1.63,-2.27
2026-06-21 23:23:24.079,0.12,-1.33,0.32,-1.96
2026-06-21 23:23:24.080,-0.43,-0.78,-0.98,-1.04
2026-06-21 23:23:24.081,0.15,1.75,-1.13,-0.8
2026-06-21 23:23:24.082,-0.27,-0.53,1.4,-0.7
2026-06-21 23:23:24.083,0.32,-1.01,2.32,-0.56
2026-06-21 23:23:24.084,0.75,-0.82,0.66,-0.52
2026-06-21 23:23:24.085,0.49,1.64,0.25,-1.29
2026-06-21 23:23:24.086,0.29,1.78,-0.25,-0.49
2026-06-21 23:23:24.087,-0.22,-1.78,0.24,0.98
2026-06-21 23:23:24.088,0.78,-1.85,2.11,0.03
2026-06-21 23:23:24.089,0.55,-1.33,1.14,0.06
2026-06-21 23:23:24.090,-0.29,-2.05,-0.44,1.96
2026-06-21 23:23:24.091,0.65,-0.14,-1.93,2.22
2026-06-21 23:23:24.092,0.86,1.91,-2.95,1.56
2026-06-21 23:23:24.093,1,-0.91,-2.57,1.16
2026-06-21 23:23:24.094,1.96,0.02,-1.55,-0.42
2026-06-21 23:23:24.095,1.5,2.72,0.78,-1.43
2026-06-21 23:23:24.081,1.56,-0.23,0.59,-2.39
2026-06-21 23:23:24.082,-1.2,-1.44,-1.5,-2.47
2026-06-21 23:23:24.083,-3.65,0.92,0.69,0.64
2026-06-21 23:23:24.084,-3.94,2.48,-0.95,1.08
2026-06-21 23:23:24.085,-3.61,0.32,-1.96,-0.93
2026-06-21 23:23:24.086,-1.08,0.3,4.76,-0.04
2026-06-21 23:23:24.087,-0.86,1.08,3.13,2.29
2026-06-21 23:23:24.088,0.13,-0.98,-0.28,2.24
2026-06-21 23:23:24.089,0.88,-0.39,0.87,-0.05
2026-06-21 23:23:24.090,0.2,-0.84,0.22,0.8
2026-06-21 23:23:24.091,0.49,-1.77,-1.76,-0.21
2026-06-21 23:23:24.092,0.58,-0.61,-2.71,-2.07
2026-06-21 23:23:24.093,1.26,-0.1,0.55,-1.16
2026-06-21 23:23:24.094,2.23,-0.27,2.85,0.38
2026-06-21 23:23:24.095,1.46,-0.06,2.94,0.42
2026-06-21 23:23:24.096,0.62,0.05,2.01,-0.61
2026-06-21 23:23:24.097,0.13,0,-1.32,-0.21
2026-06-21 23:23:24.098,1.55,0.34,-2.61,-1.1
2026-06-21 23:23:24.099,1.08,0.88,-1.09,1.13
2026-06-21 23:23:24.100,0.38,0.48,-0.84,1.48
2026-06-21 23:23:24.101,0.29,0.19,-1.92,-2.36
2026-06-21 23:23:24.102,-1.48,0.48,-1.45,-1.83
2026-06-21 23:23:24.103,-0.46,0.22,-0.65,0.99
2026-06-21 23:23:24.104,-0.13,0.41,-1.34,1.74
2026-06-21 23:23:24.105,-0.5,0.11,-0.16,0.18
2026-06-21 23:23:24.106,-0.19,0.29,0.11,0.98
2026-06-21 23:23:24.107,-0.82,-0.11,0.46,-1.75
2026-06-21 23:23:24.108,-1.65,0.13,-1.05,-1.04
2026-06-21 23:23:24.109,-0.44,0.48,1.24,5.36
2026-06-21 23:23:24.110,0.05,-0.13,2.47,1.01
2026-06-21 23:23:24.111,0.82,-0.4,-1.4,-0.14
2026-06-21 23:23:24.112,-0.77,-0.49,0.07,1.51
2026-06-21 23:23:24.113,-1.81,-0.35,-0.73,-0.75
2026-06-21 23:23:24.114,0.02,-0.89,-1.18,0.58
2026-06-21 23:23:24.115,0.27,-0.2,0.62,-1.16
2026-06-21 23:23:24.116,0.16,0.34,0.48,-2.59
2026-06-21 23:23:24.117,-0.04,-0.13,0.77,-1.14
2026-06-21 23:23:24.118,0.3,0.19,0.97,-1.15
2026-06-21 23:23:24.119,0.63,-0.31,1.53,-1.31
2026-06-21 23:23:24.120,0.39,-1.38,2.08,-1.42
2026-06-21 23:23:24.121,0.77,0.2,2.75,-0.04
2026-06-21 23:23:24.122,0.39,-1.5,1.57,-0.1
2026-06-21 23:23:24.123,-0.48,-0.85,-1.39,-0.43
2026-06-21 23:23:24.124,0.45,2.42,0.66,1.42
2026-06-21 23:23:24.125,0.69,2.64,1.65,1.44
2026-06-21 23:23:24.126,0.65,1.94,1.03,1.63
2026-06-21 23:23:24.127,1.11,-1.3,1.51,0.92
2026-06-21 23:23:24.128,0.08,-0.62,-2.63,0.26
2026-06-21 23:23:24.129,0.84,1.19,-6.7,0.66
2026-06-21 23:23:24.130,1.15,-0.11,-3.8,0.16
2026-06-21 23:23:24.145,1.34,0.29,-1.13,0.75
2026-06-21 23:23:24.146,0.82,0.78,-1.8,-1.26
2026-06-21 23:23:24.147,-1.67,0.78,1.12,0.38
2026-06-21 23:23:24.148,-1.63,-0.19,1.36,2.62
2026-06-21 23:23:24.149,-2.81,-1.58,-1.46,-1.06
2026-06-21 23:23:24.150,-1.56,-0.39,-1.88,-1.08
2026-06-21 23:23:24.151,-0.21,-0.81,0.65,0.96
2026-06-21 23:23:24.152,-2.77,-0.41,2.92,1.18
2026-06-21 23:23:24.153,-1.29,-0.3,3.81,-0.41
2026-06-21 23:23:24.154,0.89,-0.31,2.22,-3.59
2026-06-21 23:23:24.155,0.3,0,3.1,-0.89
2026-06-21 23:23:24.156,0.27,-0.18,2.43,2.09
2026-06-21 23:23:24.157,1.2,0.1,-2.27,-0.55
2026-06-21 23:23:24.158,1.07,-0.07,-2.56,-2.29
2026-06-21 23:23:24.159,-1.05,0.06,-0.76,-0.17
2026-06-21 23:23:24.160,0.47,-0.02,3.94,0.49
2026-06-21 23:23:24.161,1.21,-0.1,2.07,-1.96
2026-06-21 23:23:24.162,0.92,0.82,-4.97,-0.72
2026-06-21 23:23:24.163,0.99,1.29,-5.29,1.1
2026-06-21 23:23:24.164,0.67,0,-0.21,-0.6
2026-06-21 23:23:24.165,0.77,-0.38,1.11,-0.24
2026-06-21 23:23:24.166,0.47,-0.16,0.08,0.67
2026-06-21 23:23:24.167,0.61,-0.36,3.05,0.18
2026-06-21 23:23:24.168,-1.4,0.48,3.8,1.95
2026-06-21 23:23:24.169,-1.87,-0.39,-0.36,0.38
2026-06-21 23:23:24.170,-0.07,-0.44,-1.98,0.31
2026-06-21 23:23:24.171,0.32,0.41,0.06,0.45
2026-06-21 23:23:24.172,-0.18,-0.74,0.44,0.38
2026-06-21 23:23:24.173,-0.76,-0.2,-1.41,2.36
2026-06-21 23:23:24.174,-0.18,1.2,-0.7,-0.52
2026-06-21 23:23:24.175,0.61,-0.09,-1.11,-0.06
2026-06-21 23:23:24.176,-0.13,-0.76,-0.52,3.47
2026-06-21 23:23:24.177,-0.21,-0.15,2.1,-1.12
2026-06-21 23:23:24.178,-0.13,-0.34,-0.39,-3.92
2026-06-21 23:23:24.179,-0.06,-0.29,-0.87,-1.68
2026-06-21 23:23:24.180,-0.11,0.94,-1.33,-1.8
2026-06-21 23:23:24.181,0.2,0.2,-0.5,-1.37
2026-06-21 23:23:24.182,-0.08,-1.69,0.83,-1.59
2026-06-21 23:23:24.183,-1.15,1.64,1.48,0.5
2026-06-21 23:23:24.184,-0.73,0.23,1.42,-0.08
2026-06-21 23:23:24.185,-0.26,-0.61,0.26,-0.14
2026-06-21 23:23:24.186,0.31,-0.15,-0.28,0.58
2026-06-21 23:23:24.187,0.56,-0.7,0.69,0.42
2026-06-21 23:23:24.188,-0.24,0.87,1.33,4.05
2026-06-21 23:23:24.189,0.68,0.38,0.39,1.95
2026-06-21 23:23:24.190,0.73,0.9,1.58,-0.88
2026-06-21 23:23:24.191,0.95,-0.4,0.02,1.06
2026-06-21 23:23:24.192,0.94,-1.24,-3.67,-0.62
2026-06-21 23:23:24.193,1.27,1.47,-4.14,-1.72
2026-06-21 23:23:24.194,1.31,-0.65,-1.13,-0.76
2026-06-21 23:23:24.181,1.6,1.75,-1.02,0.55
2026-06-21 23:23:24.182,1.92,3.33,-1.93,1.31
2026-06-21 23:23:24.183,-3.2,-0.89,-0.06,0.64
2026-06-21 23:23:24.184,-3.54,-1.35,1.79,1.84
2026-06-21 23:23:24.185,-1.99,-1.42,0.37,-0.94
2026-06-21 23:23:24.186,-2.94,-0.31,-0.05,-1.37
2026-06-21 23:23:24.187,0.33,-1.42,0.92,-1.01
2026-06-21 23:23:24.188,0.81,-0.8,0.51,0.17
2026-06-21 23:23:24.189,-1.9,-1.71,2.64,0.62
2026-06-21 23:23:24.190,-0.53,-3.89,-0.66,-3.52
2026-06-21 23:23:24.191,1.39,-1.84,-5.54,-0.51
2026-06-21 23:23:24.192,0.35,3.95,0.34,1.84
2026-06-21 23:23:24.193,0,5.53,3.21,-0.05
2026-06-21 23:23:24.194,2.04,-0.39,2,1.14
2026-06-21 23:23:24.195,1.62,-1.97,2.93,-1.92
2026-06-21 23:23:24.196,0.91,-0.19,2.04,-2.1
2026-06-21 23:23:24.197,-0.19,-0.47,3.04,0.58
2026-06-21 23:23:24.198,0.92,0.33,-0.58,-0.46
2026-06-21 23:23:24.199,1.86,-0.17,-6.29,1.77
2026-06-21 23:23:24.200,-1.45,2.05,-6.57,0.99
2026-06-21 23:23:24.201,-1.46,1.29,-6.25,-0.7
2026-06-21 23:23:24.202,-0.89,-1.62,-2.32,1.06
2026-06-21 23:23:24.203,-0.71,-0.46,2.46,0
2026-06-21 23:23:24.204,0.48,-0.86,3.97,-0.93
2026-06-21 23:23:24.205,-0.12,-0.4,2.64,0.07
2026-06-21 23:23:24.206,-1.29,-1.28,-1.23,-1.47
2026-06-21 23:23:24.207,0.51,-0.26,-3.28,0.6
2026-06-21 23:23:24.208,0.02,2.22,0.76,1.76
2026-06-21 23:23:24.209,-1.99,1.33,4.53,0.48
2026-06-21 23:23:24.210,-0.08,0.42,3.76,2.89
2026-06-21 23:23:24.211,0.07,-0.46,5.27,3.29
2026-06-21 23:23:24.212,0.13,-1.16,7.66,0.33
2026-06-21 23:23:24.213,1.39,-0.64,0,-1.15
2026-06-21 23:23:24.214,0.29,-1.1,-6.37,-1.46
2026-06-21 23:23:24.215,-0.11,0.95,-5.58,-1.77
2026-06-21 23:23:24.216,0.36,1.31,-1.24,-0.85
2026-06-21 23:23:24.217,0.22,0.25,3.15,-1.91
2026-06-21 23:23:24.218,-0.35,-0.13,-1.52,-1.09
2026-06-21 23:23:24.219,0.73,-0.59,-2.24,1.92
2026-06-21 23:23:24.220,-0.35,0.26,-2.38,-0.15
2026-06-21 23:23:24.221,-2.74,-0.86,-1.2,-1.89
2026-06-21 23:23:24.222,-0.12,-0.84,0.08,-0.34
2026-06-21 23:23:24.223,2.27,1.23,-1.45,0.78
2026-06-21 23:23:24.224,0.3,-0.67,1.67,0.22
2026-06-21 23:23:24.225,0.93,-0.36,0.77,-0.55
2026-06-21 23:23:24.226,1.49,-0.08,-0.81,-0.88
2026-06-21 23:23:24.227,-0.49,-1.1,2.15,-1.26
2026-06-21 23:23:24.228,0.65,0.61,0.56,1.41
2026-06-21 23:23:24.229,1.86,-0.52,-0.78,1.62
2026-06-21 23:23:24.230,2.41,0.85,-1.62,-1.01
2026-06-21 23:23:24.245,1.91,1.53,1.46,-1.24
2026-06-21 23:23:24.246,-2.5,1.24,4.01,1.23
2026-06-21 23:23:24.247,-4.15,2.32,0.58,0.54
2026-06-21 23:23:24.248,-3.1,-0.21,-0.04,-1.4
2026-06-21 23:23:24.249,-2.22,-1.14,-1.35,-0.82
2026-06-21 23:23:24.250,0.9,-0.26,0.12,0.43
2026-06-21 23:23:24.251,0.17,-0.48,1.53,2.14
2026-06-21 23:23:24.252,-0.81,-0.24,3.44,0.39
2026-06-21 23:23:24.253,0.08,-0.81,3.22,-0.93
2026-06-21 23:23:24.254,0.39,-0.12,-1.49,1.24
2026-06-21 23:23:24.255,0.91,1,-2.66,2.49
2026-06-21 23:23:24.256,1.42,0.84,-1.96,0.86
2026-06-21 23:23:24.257,0.93,-0.62,-0.9,-1.27
2026-06-21 23:23:24.258,0.05,-1.4,2.56,-0.68
2026-06-21 23:23:24.259,-0.76,0.01,3.99,-2.1
2026-06-21 23:23:24.260,-0.45,0.21,2.68,-3.42
2026-06-21 23:23:24.261,0.61,-0.21,-2.58,1.07
2026-06-21 23:23:24.262,-0.12,0.14,-4.8,1.66
2026-06-21 23:23:24.263,0.33,-0.55,-3.17,-0.42
2026-06-21 23:23:24.264,1.1,0.95,-2.82,-1.23
2026-06-21 23:23:24.265,1.57,3.18,0.06,0.42
2026-06-21 23:23:24.266,0.96,-0.05,-0.56,-0.12
2026-06-21 23:23:24.267,-0.49,-0.64,-0.91,-0.32
2026-06-21 23:23:24.268,0.31,-0.49,0.65,2.74
2026-06-21 23:23:24.269,0.54,-2.04,-2.43,-0.62
2026-06-21 23:23:24.270,-1.03,-0.69,-1.98,-1.15
2026-06-21 23:23:24.271,0.22,-0.66,0.49,-0.26
2026-06-21 23:23:24.272,0.61,-0.65,-0.86,-1.24
2026-06-21 23:23:24.273,-0.66,-2.02,2.28,3.23
2026-06-21 23:23:24.274,-0.16,-0.48,5.68,4.47
2026-06-21 23:23:24.275,-0.71,2.11,7.15,3.51
2026-06-21 23:23:24.276,-1.78,3.6,3.53,1.19
2026-06-21 23:23:24.277,-0.6,3.45,-2.23,-4.18
2026-06-21 23:23:24.278,-0.41,-0.68,-0.48,-1.71
2026-06-21 23:23:24.279,-2.03,-2.03,0.28,-1.01
2026-06-21 23:23:24.280,0.27,-0.54,-3.19,-2.12
2026-06-21 23:23:24.281,0.31,-1.64,-3.64,-1.53
2026-06-21 23:23:24.282,-1.29,-2.04,-1.23,-1.06
2026-06-21 23:23:24.283,0.37,-1.32,-0.61,0.43
2026-06-21 23:23:24.284,0.99,-2.05,0.76,0.34
2026-06-21 23:23:24.285,0.67,2.4,1.4,-0.23
2026-06-21 23:23:24.286,0.97,4.5,0.11,0.78
2026-06-21 23:23:24.287,1.01,1.19,1.23,0.45
2026-06-21 23:23:24.288,1.16,-0.35,-0.22,-0.44
2026-06-21 23:23:24.289,0.58,-0.52,-2.72,1.1
2026-06-21 23:23:24.290,1.61,1.29,-4.03,-1.17
2026-06-21 23:23:24.291,0.89,0.59,-2.72,-0.48
2026-06-21 23:23:24.292,-1.06,-1.46,1.02,0.37
2026-06-21 23:23:24.293,2.26,0.97,1.04,0.99
2026-06-21 23:23:24.294,2.35,-0.58,2.67,2.32
2026-06-21 23:23:24.290,,-1.41,3.17,-0.48
2026-06-21 23:23:24.281,-0.99,-0.12,1.33,-1.47
2026-06-21 23:23:24.282,-2.25,0.33,1.51,-0.78
2026-06-21 23:23:24.283,-4.68,0.07,-3.22,-1.87
2026-06-21 23:23:24.284,-3.57,-1.06,-4.37,1.5
2026-06-21 23:23:24.285,0.07,0.08,-3.15,3.09
2026-06-21 23:23:24.286,-0.42,0.71,-2.42,2.48
2026-06-21 23:23:24.287,0.05,-0.03,2.93,1.65
2026-06-21 23:23:24.288,0.02,-0.69,4.68,-1.23
2026-06-21 23:23:24.289,-0.01,-0.21,3.67,-1.33
2026-06-21 23:23:24.290,2.18,-0.59,1.02,-0.86
2026-06-21 23:23:24.291,1.28,-0.29,-0.46,-1.3
2026-06-21 23:23:24.292,-0.19,-0.66,2.63,-0.19
2026-06-21 23:23:24.293,0.11,-0.27,4.01,0.8
2026-06-21 23:23:24.294,-0.21,0.79,-0.5,-0.93
2026-06-21 23:23:24.295,-0.99,-0.32,,1.44
2026-06-21 23:23:24.296,-0.3,-0.87,-4.58,1.48
2026-06-21 23:23:24.297,1.12,-0.5,-3.35,-1.85
2026-06-21 23:23:24.298,1.03,-1.02,-0.82,-1.36
2026-06-21 23:23:24.299,1.84,-0.68,-2.12,1.16
2026-06-21 23:23:24.300,0.54,-0.51,-2,-0.93
2026-06-21 23:23:24.301,-0.49,0.7,1.52,-1.99
2026-06-21 23:23:24.302,0.9,5.06,2.32,0.29
2026-06-21 23:23:24.303,0.17,4.41,0.48,-0.44
2026-06-21 23:23:24.304,-0.02,-0.57,-0.31,0.97
2026-06-21 23:23:24.305,-0.2,-1.5,0.04,2.72
2026-06-21 23:23:24.306,-1.63,0.19,0.6,-0.17
2026-06-21 23:23:24.307,-0.51,0.86,-1.61,-0.04
2026-06-21 23:23:24.308,0.76,-1.54,-1.4,1.51
2026-06-21 23:23:24.309,0.01,-0.61,1.15,0.56
2026-06-21 23:23:24.310,0.12,1.42,0.43,0.83
2026-06-21 23:23:24.311,-0.29,-1.41,-0.96,
2026-06-21 23:23:24.312,-1.26,-0.82,-3.01,-0.67
2026-06-21 23:23:24.313,-0.35,-0.16,-0.62,-2.25
2026-06-21 23:23:24.314,-0.43,-1.32,2.73,-2.05
2026-06-21 23:23:24.315,-1.84,-0.37,3.06,0.17
2026-06-21 23:23:24.316,-1.27,-1.3,2.07,1.19
2026-06-21 23:23:24.317,0.7,-1.97,-1.55,-0.7
2026-06-21 23:23:24.318,1,0.22,-0.68,-0.35
2026-06-21 23:23:24.319,0.96,1.21,1.16,1.55
2026-06-21 23:23:24.320,0.89,-0.7,1.56,-1.26
2026-06-21 23:23:24.321,-0.47,-0.27,4.52,-1.56
2026-06-21 23:23:24.322,0.22,2.32,3.86,0.9
2026-06-21 23:23:24.323,0.3,-0.29,1.89,0.78
2026-06-21 23:23:24.324,0.58,-1.56,-1.92,-0.74
2026-06-21 23:23:24.325,1.06,1.21,-4.51,-1.96
2026-06-21 23:23:24.326,0.14,-1.7,-3.38,1.03
2026-06-21 23:23:24.327,0.42,-1.74,-5.97,-0.35
2026-06-21 23:23:24.328,1.22,2.07,-5.36,-1.01
2026-06-21 23:23:24.329,1.6,1.46,-0.91,2.08
2026-06-21 23:23:24.330,0.67,2.41,2.05,-1.28
2026-06-21 23:23:24.345,0.59,1.98,1.53,-2.08
2026-06-21 23:23:24.346,-0.78,-1,-0.39,1.97
2026-06-21 23:23:24.347,-3.68,-1.27,-0.75,1.82
2026-06-21 23:23:24.348,-0.45,-0.51,-0.79,-0.31
2026-06-21 23:23:24.349,0.36,0.52,1.52,-0.61
2026-06-21 23:23:24.350,-3.36,1.51,1.79,0.64
2026-06-21 23:23:24.351,-0.3,0.85,1.79,0.21
2026-06-21 23:23:24.352,0.31,-0.58,1.08,1.98
2026-06-21 23:23:24.353,-0.08,-1.07,-1.88,-0.8
2026-06-21 23:23:24.354,1.57,-0.44,1,-0.99
2026-06-21 23:23:24.355,-0.36,-0.6,2.48,1.48
2026-06-21 23:23:24.356,0.04,-0.4,0.59,-2.62
2026-06-21 23:23:24.357,0.49,-0.26,-0.42,0.61
2026-06-21 23:23:24.358,0.26,0.35,0.51,-0.08
2026-06-21 23:23:24.359,1.36,-0.11,2.55,-2.28
2026-06-21 23:23:24.360,0.27,-2.23,-1.26,1.18
2026-06-21 23:23:24.361,0.1,-1.66,-1.36,0.54
2026-06-21 23:23:24.362,0.85,-0.18,2.44,1.74
2026-06-21 23:23:24.363,0.65,-1.04,4.18,0.25
2026-06-21 23:23:24.364,1.39,-1.26,4.09,-2.02
2026-06-21 23:23:24.365,-0.36,-1.54,2.21,-1.85
2026-06-21 23:23:24.366,-0.44,3.53,-4.15,-0.28
2026-06-21 23:23:24.367,0.34,7.64,-9.01,3.57
2026-06-21 23:23:24.368,-1.72,1.83,-5.18,-0.81
2026-06-21 23:23:24.369,-1.05,-1.09,-3.26,-1.44
2026-06-21 23:23:24.370,-0.1,-0.99,-2.35,0.5
2026-06-21 23:23:24.371,-1.68,-3.17,2.23,-0.69
2026-06-21 23:23:24.372,0.16,-2.88,3.06,2.12
2026-06-21 23:23:24.373,0.49,-1.48,1.77,0.44
2026-06-21 23:23:24.374,-0.09,-0.85,0.2,-0.63
2026-06-21 23:23:24.375,0.17,2.64,-0.71,0.65
2026-06-21 23:23:24.376,-1.13,3.59,0.54,-1.08
2026-06-21 23:23:24.377,0.01,0.27,-0.67,-1.37
2026-06-21 23:23:24.378,0.17,-1.44,0.25,-0.94
2026-06-21 23:23:24.379,-0.01,0.94,2.58,-0.24
2026-06-21 23:23:24.380,0.84,1.85,3.17,-0.09
2026-06-21 23:23:24.381,-0.1,-0.93,2.73,1.57
2026-06-21 23:23:24.382,-0.61,-0.9,2.09,3.14
2026-06-21 23:23:24.383,-0.2,-0.65,0.35,0.71
2026-06-21 23:23:24.384,-0.39,-0.32,-2.23,0.24
2026-06-21 23:23:24.385,-0.13,2.29,-2.23,0.32
2026-06-21 23:23:24.386,0.64,-0.96,-1.12,-1.11
2026-06-21 23:23:24.387,1.72,-1.37,-2.85,-0.83
2026-06-21 23:23:24.388,-0.01,0.45,-0.7,-1.21
2026-06-21 23:23:24.389,0.68,-0.95,1.86,-1.12
2026-06-21 23:23:24.390,1.71,0.54,1.31,0.02
2026-06-21 23:23:24.391,0.46,-0.04,1.22,1.02
2026-06-21 23:23:24.392,0.56,0.1,0.83,1.17
2026-06-21 23:23:24.393,-0.05,0.78,-1.46,-1.67
2026-06-21 23:23:24.394,0.52,-0.4,-2.77,-1.57
2026-06-21 23:23:24.383,1.68,-0.65,-0.32,2.91
2026-06-21 23:23:24.384,-1.18,-0.3,0.84,0.25
2026-06-21 23:23:24.385,-5.48,-0.44,1.29,-2.59
2026-06-21 23:23:24.386,-3.79,0.52,-0.5,-0.24
2026-06-21 23:23:24.387,-0.09,0.52,-0.99,0.35
2026-06-21 23:23:24.388,0.48,-0.36,-0.7,1.4
2026-06-21 23:23:24.389,-1.03,-0.05,-0.43,1.36
2026-06-21 23:23:24.390,-2.1,-0.64,0.44,0.91
2026-06-21 23:23:24.391,2.35,0.28,-2.27,0.73
2026-06-21 23:23:24.392,2.01,2.27,-2.13,-1.21
2026-06-21 23:23:24.393,-1.21,1.28,2.62,-2.12
2026-06-21 23:23:24.394,2.34,-1.01,0.85,1.39
2026-06-21 23:23:24.395,0.22,-1.91,1.13,1.49
2026-06-21 23:23:24.396,-0.68,-0.12,2.11,-0.95
2026-06-21 23:23:24.397,0.53,0.29,0.63,-0.04
2026-06-21 23:23:24.398,-0.57,-0.74,2.82,-1.44
2026-06-21 23:23:24.399,1.09,2.59,0.1,-0.93
2026-06-21 23:23:24.400,-0.1,-0.13,-4.43,1.08
2026-06-21 23:23:24.401,0.36,-2.02,1.21,0.68
2026-06-21 23:23:24.402,0.95,1.33,6.49,0.77
2026-06-21 23:23:24.403,-0.41,0.13,2.06,-0.37
2026-06-21 23:23:24.404,1.47,-0.76,-1.02,-0.59
2026-06-21 23:23:24.405,0.87,0.35,-2.72,-0.96
2026-06-21 23:23:24.406,-0.91,-0.5,-2.09,0.96
2026-06-21 23:23:24.407,0.56,-0.95,-2.61,2.18
2026-06-21 23:23:24.408,-0.2,-0.39,-5.24,-1.4
2026-06-21 23:23:24.409,-1.18,-0.67,-5.14,0.78
2026-06-21 23:23:24.410,0.62,-0.4,-2.63,1.45
2026-06-21 23:23:24.411,0.15,2.21,0.69,-1.34
2026-06-21 23:23:24.412,-1.6,3.41,2.9,-0.45
2026-06-21 23:23:24.413,0.03,1.37,2.82,0.22
2026-06-21 23:23:24.414,-0.03,-0.78,2.13,-0.84
2026-06-21 23:23:24.415,-1.51,-1.75,-1.15,-0.64
2026-06-21 23:23:24.416,0.84,-0.93,-7.36,-0.76
2026-06-21 23:23:24.417,-0.06,-1.72,-6.91,-1.52
2026-06-21 23:23:24.418,-1.33,-0.97,0.84,0
2026-06-21 23:23:24.419,-0.13,-0.23,8.14,1.54
2026-06-21 23:23:24.420,-0.61,2.3,9.59,1.49
2026-06-21 23:23:24.421,0.11,2.06,5.01,-0.97
2026-06-21 23:23:24.422,0.67,-0.87,0.25,-1.92
2026-06-21 23:23:24.423,-0.36,-0.09,-2.49,0.63
2026-06-21 23:23:24.424,0.43,-1.24,-4.05,0.27
2026-06-21 23:23:24.425,0.67,-0.21,-0.45,-0.82
2026-06-21 23:23:24.426,0.37,1.42,2.67,1.61
2026-06-21 23:23:24.427,0.9,-0.48,2.01,1.46
2026-06-21 23:23:24.428,1.25,-2.04,2.92,0
2026-06-21 23:23:24.429,1.18,-0.28,1.79,-1.25
2026-06-21 23:23:24.430,0.72,1.14,-2.61,-0.83
2026-06-21 23:23:24.431,0.69,-0.44,-6.45,-1.75
2026-06-21 23:23:24.432,1.17,-1.7,-6.71,-0.11
2026-06-21 23:23:24.445,1.83,-2.66,-2.21,0.87
2026-06-21 23:23:24.446,-1.64,-1.08,1.76,-0.51
2026-06-21 23:23:24.447,-4.19,-1.97,1.7,3.25
2026-06-21 23:23:24.448,-2.11,-1.24,1.66,1.61
2026-06-21 23:23:24.449,-0.98,8.17,3.19,-0.11
2026-06-21 23:23:24.450,-1,6.77,2.8,2.2
2026-06-21 23:23:24.451,-0.38,-0.07,2.37,2.02
2026-06-21 23:23:24.452,-0.12,-0.71,0.06,1.89
2026-06-21 23:23:24.453,1.01,-0.96,-1.3,-1.02
2026-06-21 23:23:24.454,0.53,-0.62,-3.21,-2.56
2026-06-21 23:23:24.455,0.07,-2,-5.86,-1.16
2026-06-21 23:23:24.456,1.98,-1.22,-1.42,-2.04
2026-06-21 23:23:24.457,0.59,-0.17,1.1,-2.17
2026-06-21 23:23:24.458,-0.39,-0.24,0.31,-0.75
2026-06-21 23:23:24.459,0.3,0.76,2.63,-0.11
2026-06-21 23:23:24.460,0.31,-0.25,5.53,-0.36
2026-06-21 23:23:24.461,0.2,0.09,3.74,-0.38
2026-06-21 23:23:24.462,-0.8,-0.38,0.85,-1.13
2026-06-21 23:23:24.463,1.13,-1.52,-3.26,-0.38
2026-06-21 23:23:24.464,1.07,-0.37,-4.3,-0.71
2026-06-21 23:23:24.465,-0.26,-0.28,1.29,-0.13
2026-06-21 23:23:24.466,0.73,-0.16,4.32,1.13
2026-06-21 23:23:24.467,-1.27,-0.84,1.14,0.09
2026-06-21 23:23:24.468,0.09,-0.73,1.03,-0.01
2026-06-21 23:23:24.469,0.48,1.94,-1.87,1.83
2026-06-21 23:23:24.470,-1.21,1.65,-3.48,2.34
2026-06-21 23:23:24.471,-0.04,1.13,-2.69,1.13
2026-06-21 23:23:24.472,-1.32,0.64,-4.07,2.82
2026-06-21 23:23:24.473,-0.98,-1.13,1.53,1.81
2026-06-21 23:23:24.474,0.7,-0.29,2.32,0.6
2026-06-21 23:23:24.475,-0.23,-0.32,1.08,0.99
2026-06-21 23:23:24.476,-0.42,-0.39,0.04,-1.82
2026-06-21 23:23:24.477,-0.26,-0.38,-1.46,-0.97
2026-06-21 23:23:24.478,0.09,1.07,1.01,-1.63
2026-06-21 23:23:24.479,0.62,1.96,1.66,-1.93
2026-06-21 23:23:24.480,0.67,-0.82,0.9,-0.95
2026-06-21 23:23:24.481,-0.03,-1.1,0.42,-1.61
2026-06-21 23:23:24.482,-0.21,0.34,-0.89,-0.22
2026-06-21 23:23:24.483,0.12,-0.19,-2.43,-1.89
2026-06-21 23:23:24.484,-0.18,0.13,-2.32,-0.03
2026-06-21 23:23:24.485,0.31,-0.28,0.68,2.24
2026-06-21 23:23:24.486,-0.1,-2.37,1.96,-0.82
2026-06-21 23:23:24.487,-0.3,-1.11,1.34,-1.37
2026-06-21 23:23:24.488,0.08,-0.1,1.94,0.46
2026-06-21 23:23:24.489,0.61,-0.34,1.68,0.78
2026-06-21 23:23:24.490,0.42,2.49,0.07,-0.79
2026-06-21 23:23:24.491,1.52,2.63,-2.4,-0.06
2026-06-21 23:23:24.492,0.81,-0.25,-1.44,2.7
2026-06-21 23:23:24.493,0.08,-1.43,-0.74,1.5
2026-06-21 23:23:24.494,2.23,-0.69,-0.91,0.87
2026-06-21 23:23:24.481,0.81,1.16,0.92,0.59
2026-06-21 23:23:24.482,-0.87,-0.62,0.85,-0.08
2026-06-21 23:23:24.483,-2.58,0.91,1.71,-0.24
2026-06-21 23:23:24.484,-3.39,3.22,-1.26,-0.3
2026-06-21 23:23:24.485,-0.97,-0.26,-4.29,0.6
2026-06-21 23:23:24.486,-0.11,-0.56,-3.67,0.15
2026-06-21 23:23:24.487,-1.55,-0.23,-0.6,-2.63
2026-06-21 23:23:24.488,-0.41,-1.01,1.4,-2.59
2026-06-21 23:23:24.489,1.12,-0.24,1.8,1.27
2026-06-21 23:23:24.490,-0.22,-0.01,0.1,1.76
2026-06-21 23:23:24.491,-0.85,-0.23,0.98,-0.32
2026-06-21 23:23:24.492,1.47,-0.72,4.44,-1.83
2026-06-21 23:23:24.493,1.81,-0.16,5.33,1.35
2026-06-21 23:23:24.494,1.01,0.07,3.77,3.58
2026-06-21 23:23:24.495,-0.59,-0.05,1.27,-0.25
2026-06-21 23:23:24.496,0.03,0.04,2.27,-2.51
2026-06-21 23:23:24.497,1.59,0.02,0.2,-2.11
2026-06-21 23:23:24.498,0.77,0.06,-6.08,-1.2
2026-06-21 23:23:24.499,0.6,0,-5.84,0.9
2026-06-21 23:23:24.500,-0.99,0.1,-3.31,-0.05
2026-06-21 23:23:24.501,-1.14,-0.16,-3.08,-0.7
2026-06-21 23:23:24.502,-1.23,0.14,1.8,-2.36
2026-06-21 23:23:24.503,-1.37,0.36,0.47,-3.05
2026-06-21 23:23:24.504,0.2,0.09,-4.16,0.95
2026-06-21 23:23:24.505,0.62,0.03,-3.69,3.24
2026-06-21 23:23:24.506,0.14,-0.13,-0.67,2.79
2026-06-21 23:23:24.507,0.24,-1.13,1.31,2.46
2026-06-21 23:23:24.508,0.06,-2.12,3.77,3.95
2026-06-21 23:23:24.509,0.02,-1.48,2.66,2.62
2026-06-21 23:23:24.510,-0.87,-1.12,-1.35,1.36
2026-06-21 23:23:24.511,-0.81,-0.16,0.16,-1.92
2026-06-21 23:23:24.512,-0.23,2.33,2.07,-4.66
2026-06-21 23:23:24.513,0.04,3.71,2.91,-2.19
2026-06-21 23:23:24.514,0.5,4.66,2.25,-1.49
2026-06-21 23:23:24.515,0.07,0.17,0.89,-1.42
2026-06-21 23:23:24.516,-0.2,-1.53,-0.7,0.47
2026-06-21 23:23:24.517,0.09,0.92,-3.34,-0.07
2026-06-21 23:23:24.518,-0.01,-1.39,-1.8,-1.52
2026-06-21 23:23:24.519,0.16,-1.79,2.16,-1.36
2026-06-21 23:23:24.520,0.25,-0.83,3.76,0.58
2026-06-21 23:23:24.521,0.26,-1.25,3.03,1.87
2026-06-21 23:23:24.522,0.62,-1.08,2.26,-0.39
2026-06-21 23:23:24.523,0.37,-0.93,2.56,0.19
2026-06-21 23:23:24.524,1.13,-0.49,0,2.77
2026-06-21 23:23:24.525,0.49,0.81,-4.26,1.4
2026-06-21 23:23:24.526,0.11,1,-1.92,-0.11
2026-06-21 23:23:24.527,0.8,-0.02,2.41,0.81
2026-06-21 23:23:24.528,-0.32,2.04,-0.81,-1.54
2026-06-21 23:23:24.529,1.51,2.97,-5.3,-2.85
2026-06-21 23:23:24.530,2.17,-0.74,-6.47,-1.64
2026-06-21 23:23:24.531,0.78,-0.97,-3.69,0.67
2026-06-21 23:23:24.532,-0.05,-0.48,-0.32,2.97
2026-06-21 23:23:24.533,-4.38,-0.74,-2.54,0.12
2026-06-21 23:23:24.534,-3.57,-1,-1.2,0.54
2026-06-21 23:23:24.535,-1.31,-0.53,3.3,4.58
2026-06-21 23:23:24.536,-1.64,0.91,2.74,0.99
2026-06-21 23:23:24.537,0.09,-0.48,2.38,-2.3
2026-06-21 23:23:24.538,-0.23,-0.25,1.61,-1.14
2026-06-21 23:23:24.539,1.67,1.08,1.81,-1.21
2026-06-21 23:23:24.540,1.66,0.01,1.56,-0.61
2026-06-21 23:23:24.541,0.07,-0.39,0.76,-0.34
2026-06-21 23:23:24.542,1.31,-0.02,1.91,0.1
2026-06-21 23:23:24.543,0.51,-0.24,2.83,-0.48
2026-06-21 23:23:24.544,0.53,-0.2,2.63,-1.47
2026-06-21 23:23:24.545,-0.13,-0.16,-1.75,-0.73
2026-06-21 23:23:24.546,-0.97,-0.53,-1.1,-0.67
2026-06-21 23:23:24.547,0.06,-0.14,0.52,-1.01
2026-06-21 23:23:24.548,0.53,0.7,-3.58,0.15
2026-06-21 23:23:24.549,0.41,-1.13,-4.16,1.91
2026-06-21 23:23:24.550,-0.62,-1.09,-1.21,0.08
2026-06-21 23:23:24.551,0.2,-0.76,0.83,-1.35
2026-06-21 23:23:24.552,1.22,-1.26,0.75,-0.01
2026-06-21 23:23:24.553,-0.72,0.55,-0.52,-1.49
2026-06-21 23:23:24.554,0.83,-1.74,0.12,-0.64
2026-06-21 23:23:24.555,1.44,-1.01,0.53,1.59
2026-06-21 23:23:24.556,-0.28,4.33,3.84,-0.63
2026-06-21 23:23:24.557,-0.16,2.83,1.39,0.36
2026-06-21 23:23:24.558,-0.75,-2.17,-2.79,1.59
2026-06-21 23:23:24.559,-1.59,-1.29,-0.78,0.94
2026-06-21 23:23:24.560,-0.32,1.87,-1.74,1.73
2026-06-21 23:23:24.561,0.07,1.81,-5.23,3.06
2026-06-21 23:23:24.562,0.31,2.24,-7.39,2.21
2026-06-21 23:23:24.563,0.07,2.45,0.61,-2.21
2026-06-21 23:23:24.564,-0.54,-0.59,10.19,-1.65
2026-06-21 23:23:24.565,0.16,-1.43,6.07,1
2026-06-21 23:23:24.566,-0.62,-1.22,0.32,-1.6
2026-06-21 23:23:24.567,-0.39,-1.23,1.4,-2.9
2026-06-21 23:23:24.568,-0.73,-1.11,0.3,-1.11
2026-06-21 23:23:24.569,-0.11,-1.12,-1.43,0.32
2026-06-21 23:23:24.570,1.73,0.64,-0.39,-0.07
2026-06-21 23:23:24.571,1.64,0.46,-0.48,-0.4
2026-06-21 23:23:24.572,-0.34,-0.71,-2.71,-0.12
2026-06-21 23:23:24.573,-0.67,-1.13,1.59,0.54
2026-06-21 23:23:24.574,0.11,-0.48,0.98,-0.33
2026-06-21 23:23:24.575,0.14,0.61,-2.37,0.79
2026-06-21 23:23:24.576,0.75,-0.36,-0.14,1.81
2026-06-21 23:23:24.577,0.89,-0.67,-1.06,-0.76
2026-06-21 23:23:24.578,0.62,1.33,-1.46,-0.47
2026-06-21 23:23:24.579,0.99,1.21,-1.5,-1.22
2026-06-21 23:23:24.580,1.97,-0.11,-1.93,-0.04
2026-06-21 23:23:24.595,0.45,-0.14,1.56,0.46
2026-06-21 23:23:24.596,-4.2,-0.06,1.43,-0.55
2026-06-21 23:23:24.597,-4.65,0.08,2.82,0.74
2026-06-21 23:23:24.598,-0.37,0.75,0.4,0.01
2026-06-21 23:23:24.599,-0.36,0.11,-4.09,-1
2026-06-21 23:23:24.600,-1.43,-0.01,2.58,-0.65
2026-06-21 23:23:24.601,1.44,-0.03,2.8,-0.18
2026-06-21 23:23:24.602,1.19,-0.85,-2.94,0.93
2026-06-21 23:23:24.603,-0.73,-0.13,-2.54,2.38
2026-06-21 23:23:24.604,-0.9,-1.12,-0.79,1.7
2026-06-21 23:23:24.605,0.79,-0.08,2.28,1.05
2026-06-21 23:23:24.606,1.26,3.44,2.65,2.01
2026-06-21 23:23:24.607,-0.45,1.39,1.57,-1.39
2026-06-21 23:23:24.608,0.67,-0.39,3.88,-2.67
2026-06-21 23:23:24.609,1.09,-0.43,0.94,-0.09
2026-06-21 23:23:24.610,0.36,-1.03,-2.85,-0.86
2026-06-21 23:23:24.611,0.21,-0.44,-1.9,-1.07
2026-06-21 23:23:24.612,-0.1,-0.28,-0.97,-0.7
2026-06-21 23:23:24.613,1.28,-0.31,-0.51,-2.99
2026-06-21 23:23:24.614,0.66,-0.54,1.61,-0.31
2026-06-21 23:23:24.615,-0.41,-0.16,-1.79,3.03
2026-06-21 23:23:24.616,0.33,0.68,-3.74,1.5
2026-06-21 23:23:24.617,0.53,0.72,-2.5,-0.03
2026-06-21 23:23:24.618,0.7,-1.38,-4.8,-1.93
2026-06-21 23:23:24.619,-1.67,-0.02,-3.07,0.69
2026-06-21 23:23:24.620,-2.1,2.18,4.31,2.33
2026-06-21 23:23:24.621,0.13,-0.28,4.06,0.83
2026-06-21 23:23:24.622,-0.19,-1.85,0.64,2.09
2026-06-21 23:23:24.623,-2.05,-0.89,2.2,1.45
2026-06-21 23:23:24.624,-0.51,0.76,2.51,-0.04
2026-06-21 23:23:24.625,0.28,2.53,4.14,1.09
2026-06-21 23:23:24.626,-0.57,1.01,3.75,0.45
2026-06-21 23:23:24.627,0.2,-1.89,-1.43,-1.9
2026-06-21 23:23:24.628,0.21,-1.04,-3.6,-2.84
2026-06-21 23:23:24.629,0.18,1.05,-1.64,-2.07
2026-06-21 23:23:24.630,0.33,0.83,-2.84,-0.49
2026-06-21 23:23:24.631,0.17,0.38,-1.08,0.78
2026-06-21 23:23:24.632,-0.24,0.05,1.03,-0.78
2026-06-21 23:23:24.633,0.24,-0.84,-1.69,-1.06
2026-06-21 23:23:24.634,-0.02,-0.85,-0.25,0.21
2026-06-21 23:23:24.635,-0.39,-1.25,0.49,1.23
2026-06-21 23:23:24.636,0.23,0.63,0.27,0.12
2026-06-21 23:23:24.637,0.59,0.58,-0.29,-1.98
2026-06-21 23:23:24.638,0.52,-1.1,-1.96,-0.09
2026-06-21 23:23:24.639,0.03,-0.81,0.41,1.94
2026-06-21 23:23:24.640,0.88,-1.45,-0.03,2.04
2026-06-21 23:23:24.641,1.11,-0.56,-1.44,-0.56
2026-06-21 23:23:24.642,1.3,1.44,0.87,-1.46
2026-06-21 23:23:24.643,1.56,1.12,0.76,0.09
2026-06-21 23:23:24.644,1.69,2.34,2.15,0.49
2026-06-21 23:23:24.631,2.25,3.46,4.69,0.83
2026-06-21 23:23:24.632,-0.51,0.25,1.86,-0.09
2026-06-21 23:23:24.633,-3.32,-0.34,-3.58,-1.72
2026-06-21 23:23:24.634,-4.5,0.59,-2.09,1.16
2026-06-21 23:23:24.635,-3.56,-0.13,-1.11,2.67
2026-06-21 23:23:24.636,1.14,-0.5,-0.74,-0.65
2026-06-21 23:23:24.637,1.18,-0.04,4.69,0.91
2026-06-21 23:23:24.638,-1.09,-2.58,4.51,2.22
2026-06-21 23:23:24.639,-0.78,-4.01,-1.5,-2.48
2026-06-21 23:23:24.640,-1.16,-1.68,-2.24,-0.79
2026-06-21 23:23:24.641,0.54,-0.33,0.39,1.81
2026-06-21 23:23:24.642,0.92,-0.07,-3.54,-2.24
2026-06-21 23:23:24.643,0.25,2.49,-0.34,-1.43
2026-06-21 23:23:24.644,1.43,3.74,3.61,-0.16
2026-06-21 23:23:24.645,1.44,-1.17,-0.42,-0.45
2026-06-21 23:23:24.646,-0.39,-3.51,-2.59,0.36
2026-06-21 23:23:24.647,1.17,-1.71,-2.73,-1.27
2026-06-21 23:23:24.648,0.82,1.12,0.43,-0.45
2026-06-21 23:23:24.649,-0.62,1.94,2.56,0.09
2026-06-21 23:23:24.650,0.62,0.79,1.06,-0.35
2026-06-21 23:23:24.651,0.5,1.13,-0.24,-0.9
2026-06-21 23:23:24.652,0.73,0.25,-1.85,0.54
2026-06-21 23:23:24.653,-0.17,-1.8,-2.21,1.46
2026-06-21 23:23:24.654,-0.63,-0.17,-1.16,0.52
2026-06-21 23:23:24.655,0.84,-0.1,0.63,0.18
2026-06-21 23:23:24.656,0.21,-0.39,-0.98,-2.21
2026-06-21 23:23:24.657,-1.06,1.63,1.34,1.04
2026-06-21 23:23:24.658,0.13,1.76,2.87,4.52
2026-06-21 23:23:24.659,-0.47,1.9,-1.29,1.09
2026-06-21 23:23:24.660,-1.63,0.79,0.07,-1.01
2026-06-21 23:23:24.661,-0.41,-1.1,0.31,0.83
2026-06-21 23:23:24.662,0.37,-0.7,0.22,1.84
2026-06-21 23:23:24.663,-0.1,-0.37,1.04,-1.34
2026-06-21 23:23:24.664,-0.02,-1.2,1.28,-2.1
2026-06-21 23:23:24.665,0.24,-1.38,1.27,-1.57
2026-06-21 23:23:24.666,0.55,-1.75,-0.16,-1.22
2026-06-21 23:23:24.667,-0.31,-1.62,1.22,2.29
2026-06-21 23:23:24.668,-0.2,0.07,2.97,-1.8
2026-06-21 23:23:24.669,0.61,1.38,0.69,-0.51
2026-06-21 23:23:24.670,0.03,-0.63,-1.96,3.55
2026-06-21 23:23:24.671,-0.95,-0.08,-0.45,-0.31
2026-06-21 23:23:24.672,-0.42,1.74,0.04,-1.06
2026-06-21 23:23:24.673,0.61,0.18,-0.76,-2.34
2026-06-21 23:23:24.674,-0.07,-1.34,0.53,-0.64
2026-06-21 23:23:24.675,0.72,-1.21,-1.59,1.02
2026-06-21 23:23:24.676,0.1,2.12,-2.65,-1.33
2026-06-21 23:23:24.677,1.05,2.9,-1.22,-0.08
2026-06-21 23:23:24.678,1.83,0.03,-1.01,-0.26
2026-06-21 23:23:24.679,-0.25,-0.88,-0.92,-1.69
2026-06-21 23:23:24.680,-0.16,-0.67,1.55,1.5
2026-06-21 23:23:24.695,1.48,0.21,0.92,-0.36
2026-06-21 23:23:24.696,2,0.97,-3.08,-0.54
2026-06-21 23:23:24.697,-2.56,-0.44,0.94,2.6
2026-06-21 23:23:24.698,-3.73,-0.55,2.24,-0.56
2026-06-21 23:23:24.699,-2,0.37,-0.98,-0.3
2026-06-21 23:23:24.700,-3.54,-0.54,0.62,1.59
2026-06-21 23:23:24.701,-0.25,-0.34,0.87,1.6
2026-06-21 23:23:24.702,2.36,-0.66,2.65,0.12
2026-06-21 23:23:24.703,-0.04,-1.07,1.76,-1.66
2026-06-21 23:23:24.704,1.12,-0.72,0.84,2.57
2026-06-21 23:23:24.705,0.66,1.32,-0.54,0.78
2026-06-21 23:23:24.706,0.89,2.54,-1.23,-2.32
2026-06-21 23:23:24.707,1.35,-1.32,2.29,-0.87
2026-06-21 23:23:24.708,-1.09,-2.68,-0.05,-1.05
2026-06-21 23:23:24.709,-0.94,-1,1.72,-0.4
2026-06-21 23:23:24.710,0.76,0.01,-0.34,-3.61
2026-06-21 23:23:24.711,0.75,-1.46,-7.9,-1.64
2026-06-21 23:23:24.712,0.32,0.13,-4.94,1.32
2026-06-21 23:23:24.713,-0.07,5.61,-3.59,0.58
2026-06-21 23:23:24.714,0.83,3.75,-3.3,2.55
2026-06-21 23:23:24.715,0.59,-1.36,2.69,2.62
2026-06-21 23:23:24.716,-0.93,-0.78,6.55,1.09
2026-06-21 23:23:24.717,0.54,-1.11,2.69,-0.2
2026-06-21 23:23:24.718,-1.28,-1.2,-2.64,-0.81
2026-06-21 23:23:24.719,-0.9,-0.08,0.55,0.1
2026-06-21 23:23:24.720,0.76,1.54,2.43,-1.79
2026-06-21 23:23:24.721,-0.15,1.77,3.34,-1.24
2026-06-21 23:23:24.722,-0.82,-0.45,2.53,2.12
2026-06-21 23:23:24.723,-1.34,-0.27,2.24,1.09
2026-06-21 23:23:24.724,-0.49,-0.82,2.64,1.61
2026-06-21 23:23:24.725,0.5,-0.71,-3.07,1.62
2026-06-21 23:23:24.726,-0.9,-0.13,-3.34,-2.29
2026-06-21 23:23:24.727,0.11,-2.34,-1.8,-1.41
2026-06-21 23:23:24.728,0.12,-2.22,-1.53,-1.27
2026-06-21 23:23:24.729,-0.03,-1.22,0.15,-0.9
2026-06-21 23:23:24.730,0.34,-1.01,0.55,1.05
2026-06-21 23:23:24.731,-0.1,3.22,0.63,-0.56
2026-06-21 23:23:24.732,0.69,2.27,-0.07,-0.54
2026-06-21 23:23:24.733,-0.18,-0.85,0.58,-0.5
2026-06-21 23:23:24.734,-1.29,-0.07,0.87,0.36
2026-06-21 23:23:24.735,-0.11,1.46,-1.74,0.18
2026-06-21 23:23:24.736,1.46,1.7,-3.52,-0.37
2026-06-21 23:23:24.737,0.91,0.66,-4.16,-0.83
2026-06-21 23:23:24.738,1.1,-1.4,-2.86,-0.44
2026-06-21 23:23:24.739,0.38,-0.81,-1.95,0.56
2026-06-21 23:23:24.740,-0.03,0.24,1.27,0.87
2026-06-21 23:23:24.741,0.83,-0.72,3.46,2.11
2026-06-21 23:23:24.742,1.13,-1.18,1.41,0.26
2026-06-21 23:23:24.743,0.64,-1.65,1.92,-1.84
2026-06-21 23:23:24.744,2.33,-0.86,0.43,-0.39
2026-06-21 23:23:24.732,2.03,0.55,1.45,1.18
2026-06-21 23:23:24.733,-0.48,1.11,1.76,2.38
2026-06-21 23:23:24.734,-3.84,-0.44,-1.53,0.76
2026-06-21 23:23:24.735,-5.12,-0.03,0.04,-0.2
2026-06-21 23:23:24.736,-2.63,1.89,0.49,0.25
2026-06-21 23:23:24.737,-0.55,1.07,-0.49,-0.34
2026-06-21 23:23:24.738,1.69,0.61,-0.85,0.76
2026-06-21 23:23:24.739,2.2,0.31,-1.02,1.04
2026-06-21 23:23:24.740,0.2,-0.53,1.39,-0.16
2026-06-21 23:23:24.741,0.33,0.32,2.53,-0.74
2026-06-21 23:23:24.742,-0.03,-0.22,0.69,-1
2026-06-21 23:23:24.743,-1.39,-0.44,-1.16,-0.9
2026-06-21 23:23:24.744,-0.37,-0.06,1.44,-1
2026-06-21 23:23:24.745,-0.03,0.36,3.42,-1.1
2026-06-21 23:23:24.746,0.9,-0.02,2.65,0.69
2026-06-21 23:23:24.747,2.11,-0.46,-0.83,-0.66
2026-06-21 23:23:24.748,2.1,-0.05,-4.21,-0.69
2026-06-21 23:23:24.749,-0.56,0.27,-4.09,-1.07
2026-06-21 23:23:24.750,-0.6,-0.07,-6.19,-2.3
2026-06-21 23:23:24.751,1.57,-0.6,-2.42,0.56
2026-06-21 23:23:24.752,0.56,-0.07,0.52,2
2026-06-21 23:23:24.753,-0.93,0.08,-0.36,1.87
2026-06-21 23:23:24.754,-0.79,-0.02,3.21,-0.3
2026-06-21 23:23:24.755,0.57,-0.04,4.87,0.29
2026-06-21 23:23:24.756,0.27,-0.02,3,0.67
2026-06-21 23:23:24.757,0.52,-0.15,0.14,-0.6
2026-06-21 23:23:24.758,0.65,-0.09,-0.14,0.68
2026-06-21 23:23:24.759,-1.31,-0.27,-1.67,-2.19
2026-06-21 23:23:24.760,-0.14,-0.27,-5.64,0
2026-06-21 23:23:24.761,0.6,0.42,-2.4,2.05
2026-06-21 23:23:24.762,-0.69,-0.64,0.46,1.24
2026-06-21 23:23:24.763,0.27,-0.42,0.43,1.75
2026-06-21 23:23:24.764,-1.43,1.34,1.89,-1.17
2026-06-21 23:23:24.765,-2.2,1.01,1.79,-0.21
2026-06-21 23:23:24.766,-0.65,2.86,0.33,-1.14
2026-06-21 23:23:24.767,0.14,2.25,2.88,-1.61
2026-06-21 23:23:24.768,0.19,-1.01,4.5,0.93
2026-06-21 23:23:24.769,0.08,-0.24,2.37,0.89
2026-06-21 23:23:24.770,1.11,0.57,4.21,-0.17
2026-06-21 23:23:24.771,-0.02,-0.92,-0.13,-0.04
2026-06-21 23:23:24.772,-1.05,-0.98,-6.46,-0.41
2026-06-21 23:23:24.773,-0.03,-0.82,-3.5,-1.37
2026-06-21 23:23:24.774,0.69,-0.13,-1.87,-1.15
2026-06-21 23:23:24.775,0.97,-0.7,-2.91,-0.04
2026-06-21 23:23:24.776,0.79,-0.98,-1.71,0.81
2026-06-21 23:23:24.777,0.52,-0.51,1.39,-0.8
2026-06-21 23:23:24.778,0.96,-1.28,2.34,-0.99
2026-06-21 23:23:24.779,0.97,-0.15,0.93,-0.2
2026-06-21 23:23:24.780,1.27,1.42,1.99,0.3
2026-06-21 23:23:24.781,0.63,0.14,1.38,2.3
2026-06-21 23:23:24.795,1.79,-1.41,4.13,-0.58
2026-06-21 23:23:24.796,1.87,0.35,1.02,-0.95
2026-06-21 23:23:24.797,-2.59,0.57,-7.27,1.25
2026-06-21 23:23:24.798,-3.93,0.49,-6.78,-0.04
2026-06-21 23:23:24.799,-2.5,-3,-2.33,-0.08
2026-06-21 23:23:24.800,-0.27,0.63,0.37,-0.04
2026-06-21 23:23:24.801,-0.2,7.52,3.17,1.07
2026-06-21 23:23:24.802,-3.44,0.03,2.83,-0.18
2026-06-21 23:23:24.803,-0.97,-5.92,1.28,0.03
2026-06-21 23:23:24.804,1.65,-0.14,2.01,2.01
2026-06-21 23:23:24.805,-1.02,3.07,-1,0.54
2026-06-21 23:23:24.806,-0.34,1.66,-2.75,-2.91
2026-06-21 23:23:24.807,0.97,-0.09,-1.77,-2.92
2026-06-21 23:23:24.808,0.95,-1.98,-1.82,-0.69
2026-06-21 23:23:24.809,0.57,-2.8,2.05,1.69
2026-06-21 23:23:24.810,0.62,-2.88,5.75,2.44
2026-06-21 23:23:24.811,1.05,0.44,2.18,-0.14
2026-06-21 23:23:24.812,1.11,2.09,-0.44,-0.5
2026-06-21 23:23:24.813,0.87,-0.04,1.06,1.27
2026-06-21 23:23:24.814,-0.03,0.36,3.32,-0.16
2026-06-21 23:23:24.815,0.03,0.62,3.9,-1.88
2026-06-21 23:23:24.816,0.4,-0.38,2.5,1.08
2026-06-21 23:23:24.817,0.03,-0.18,-4.74,1.32
2026-06-21 23:23:24.818,-0.72,0.17,-7.26,-1.62
2026-06-21 23:23:24.819,0.02,1.95,-5.73,-1.66
2026-06-21 23:23:24.820,-0.24,0.11,-5.14,0.19
2026-06-21 23:23:24.821,0.83,-1.66,0.31,2
2026-06-21 23:23:24.822,0.33,-0.38,2.8,1.84
2026-06-21 23:23:24.823,-2.56,0.61,2.93,1.01
2026-06-21 23:23:24.824,-0.23,-0.21,2.57,1.95
2026-06-21 23:23:24.825,0.81,-0.21,-0.58,-0.97
2026-06-21 23:23:24.826,-1.32,-0.01,0.08,-1.67
2026-06-21 23:23:24.827,0.37,-0.48,1.84,0.09
2026-06-21 23:23:24.828,0.54,1.5,-1.88,-0.65
2026-06-21 23:23:24.829,-1.35,0.19,-0.37,-0.3
2026-06-21 23:23:24.830,0.03,-1.19,1.3,-0.7
2026-06-21 23:23:24.831,1.02,-0.37,-0.98,-0.7
2026-06-21 23:23:24.832,0.28,-0.55,-0.03,0.84
2026-06-21 23:23:24.833,-0.29,-1.02,2.3,-0.57
2026-06-21 23:23:24.834,-0.49,0.03,-1.21,-1.47
2026-06-21 23:23:24.835,0.27,0.78,-2,1.02
2026-06-21 23:23:24.836,1.04,0.35,1.06,0.02
2026-06-21 23:23:24.837,-1.61,2.28,2.68,-1.35
2026-06-21 23:23:24.838,-0.44,0.07,0.62,-0.98
2026-06-21 23:23:24.839,1.1,-1.18,-3.3,-0.82
2026-06-21 23:23:24.840,0.5,1.14,-1.79,0.54
2026-06-21 23:23:24.841,1.57,-0.67,-0.68,0.18
2026-06-21 23:23:24.842,1.26,-1.54,0.77,2.2
2026-06-21 23:23:24.843,0.58,-0.35,1.18,0.96
2026-06-21 23:23:24.844,1.32,0.69,1.36,-0.99
2026-06-21 23:23:24.830,3.59,0.64,0.8,1.3
2026-06-21 23:23:24.831,-0.25,0.74,-4.49,0.82
2026-06-21 23:23:24.832,-5.48,-0.22,0.35,2.39
2026-06-21 23:23:24.833,-4.87,-0.57,5.68,2.16
2026-06-21 23:23:24.834,-2.38,-0.44,0.97,-1.86
2026-06-21 23:23:24.835,0.33,-0.25,1.8,-1.93
2026-06-21 23:23:24.836,0.19,1.01,0.22,0.09
2026-06-21 23:23:24.837,-0.87,-0.17,-0.44,0.66
2026-06-21 23:23:24.838,1.93,-0.52,-1.43,-1.43
2026-06-21 23:23:24.839,1.61,-0.34,-1.52,-1.96
2026-06-21 23:23:24.840,-0.03,0.48,-1.3,-1.77
2026-06-21 23:23:24.841,0.74,1.04,-0.12,-1.9
2026-06-21 23:23:24.842,0.45,-0.17,1.69,1.01
2026-06-21 23:23:24.843,0.63,-0.68,-1.49,0.51
2026-06-21 23:23:24.844,1.06,-0.14,2.36,0.77
2026-06-21 23:23:24.845,1.14,0.96,2.09,0.52
2026-06-21 23:23:24.846,-0.61,-0.26,-4.01,-1.06
2026-06-21 23:23:24.847,-0.86,-0.4,-1.22,0.86
2026-06-21 23:23:24.848,0.18,1.17,0.64,1.8
2026-06-21 23:23:24.849,1.01,-0.27,-1.06,-0.29
2026-06-21 23:23:24.850,1.09,-0.36,-0.99,0.13
2026-06-21 23:23:24.851,-0.41,-0.34,-1.14,-0.07
2026-06-21 23:23:24.852,0.53,0.62,-1.62,-0.46
2026-06-21 23:23:24.853,-0.27,1.18,-1.34,0.13
2026-06-21 23:23:24.854,-1.68,-0.1,0.55,0.6
2026-06-21 23:23:24.855,-0.6,-0.32,2.34,-1.3
2026-06-21 23:23:24.856,-1.17,-0.27,3.71,-0.63
2026-06-21 23:23:24.857,-0.39,-0.09,1.1,3.87
2026-06-21 23:23:24.858,-0.26,-0.62,1.65,1.02
2026-06-21 23:23:24.859,-0.72,0.23,1.39,0.89
2026-06-21 23:23:24.860,-0.14,-1.16,0.19,2.48
2026-06-21 23:23:24.861,-1.18,-1.06,-2.93,-2.24
2026-06-21 23:23:24.862,0.38,2.49,-3.55,-2.72
2026-06-21 23:23:24.863,0.38,0.35,0.35,-1.12
2026-06-21 23:23:24.864,-0.3,-1.28,0.24,-1.41
2026-06-21 23:23:24.865,0.19,0.67,1.9,-1.83
2026-06-21 23:23:24.866,-0.05,-0.24,1.06,-1.9
2026-06-21 23:23:24.867,0.04,-0.45,-2.02,1.37
2026-06-21 23:23:24.868,0.24,-0.92,-1.31,0.42
2026-06-21 23:23:24.869,1.63,-0.69,-2.6,-0.12
2026-06-21 23:23:24.870,0.44,-0.04,-1.02,0.98
2026-06-21 23:23:24.871,-1.36,-0.96,2.63,-0.29
2026-06-21 23:23:24.872,0.7,0.93,0.92,1.02
2026-06-21 23:23:24.873,2.09,2.78,-0.29,1.6
2026-06-21 23:23:24.874,1.06,0.16,0.43,0.36
2026-06-21 23:23:24.875,0.99,-1.14,-1.05,-0.51
2026-06-21 23:23:24.876,1.36,-0.01,-1.36,-1.27
2026-06-21 23:23:24.877,1.72,0.66,1.61,0.78
2026-06-21 23:23:24.878,1.76,-0.18,1.14,1.65
2026-06-21 23:23:24.879,2.57,-0.75,-0.16,-0.2
2026-06-21 23:23:24.895,-0.26,-0.3,-0.4,-1.93
2026-06-21 23:23:24.896,-6.49,-0.74,-1.47,-1.15
2026-06-21 23:23:24.897,-4.45,-0.2,-2.42,0.86
2026-06-21 23:23:24.898,-3.36,-0.14,1.73,-0.64
2026-06-21 23:23:24.899,-3.92,1.78,0.15,-0.96
2026-06-21 23:23:24.900,0.3,2.79,0.58,2.22
2026-06-21 23:23:24.901,0.63,-0.22,-0.52,1.96
2026-06-21 23:23:24.902,1.87,-1.16,-5.08,-0.36
2026-06-21 23:23:24.903,2.34,0.01,3.06,-1.41
2026-06-21 23:23:24.904,1.11,0.7,5.63,-0.62
2026-06-21 23:23:24.905,1.79,0.17,4.13,1.84
2026-06-21 23:23:24.906,0.1,-0.55,3.12,-0.26
2026-06-21 23:23:24.907,-0.85,0.24,-3.42,-0.18
2026-06-21 23:23:24.908,-1.15,-0.27,-3.66,0.84
2026-06-21 23:23:24.909,-1,-0.49,-0.57,-2.41
2026-06-21 23:23:24.910,-0.08,-0.08,0.51,-1.5
2026-06-21 23:23:24.911,1.22,-0.56,0.95,-1.18
2026-06-21 23:23:24.912,2.67,0.11,0.2,-1.91
2026-06-21 23:23:24.913,0.9,0.85,-0.25,1.71
2026-06-21 23:23:24.914,-0.75,0.18,-3.09,1.5
2026-06-21 23:23:24.915,0.56,-0.07,-3.83,0.13
2026-06-21 23:23:24.916,0.67,0.06,-1.54,0.16
2026-06-21 23:23:24.917,0.32,-0.15,0.62,1.92
2026-06-21 23:23:24.918,0.6,-0.14,1.55,-0.35
2026-06-21 23:23:24.919,0,-0.23,2.15,-0.83
2026-06-21 23:23:24.920,0.73,-0.42,1.9,4.21
2026-06-21 23:23:24.921,-0.38,-0.32,3.31,0.8
2026-06-21 23:23:24.922,-2.29,0.92,-0.77,-0.97
2026-06-21 23:23:24.923,0.29,1.13,-4.11,-0.22
2026-06-21 23:23:24.924,0.78,0.74,-0.58,0.11
2026-06-21 23:23:24.925,-0.32,-0.68,-0.23,2.41
2026-06-21 23:23:24.926,-0.19,-1.02,0.53,-1.17
2026-06-21 23:23:24.927,-1.81,-0.09,3.03,-3.21
2026-06-21 23:23:24.928,-1.77,-1.35,0.62,-1.45
2026-06-21 23:23:24.929,-1.02,-1.82,-1.92,-0.86
2026-06-21 23:23:24.930,0.76,-1.92,0.89,-0.24
2026-06-21 23:23:24.931,0.5,-1.2,1.56,-0.41
2026-06-21 23:23:24.932,-0.69,1.57,-0.04,1.09
2026-06-21 23:23:24.933,-0.23,-0.07,0.44,-0.42
2026-06-21 23:23:24.934,-0.74,-2.74,2.4,-1.28
2026-06-21 23:23:24.935,0.11,-1.35,4.85,1.77
2026-06-21 23:23:24.936,0.66,4.38,3.49,1.94
2026-06-21 23:23:24.937,0.56,8.13,1.13,-0.87
2026-06-21 23:23:24.938,1.37,2.66,-1.15,-1.14
2026-06-21 23:23:24.939,0.92,-1.17,-5.64,0.33
2026-06-21 23:23:24.940,0.74,0.11,-4.77,-0.34
2026-06-21 23:23:24.941,0.35,-1.5,-5.5,-1.63
2026-06-21 23:23:24.942,1.16,-1.95,-3.81,0.26
2026-06-21 23:23:24.943,1.31,-1.17,1.74,1.14
2026-06-21 23:23:24.944,0.88,-2.54,2.81,1.5
2026-06-21 23:23:24.931,1.6,-0.71,1.84,0.85
2026-06-21 23:23:24.932,-2.1,-2.71,-0.72,-1.63
2026-06-21 23:23:24.933,-4.3,-0.07,-2.21,0.17
2026-06-21 23:23:24.934,-1.27,6.12,-0.27,0.41
2026-06-21 23:23:24.935,-0.91,0.74,0.77,-0.28
2026-06-21 23:23:24.936,-2.06,-1.92,0.6,0.98
2026-06-21 23:23:24.937,-0.04,1.05,-1.29,-0.25
2026-06-21 23:23:24.938,0.87,-1.05,-1.43,-1.1
2026-06-21 23:23:24.939,1.69,-2.35,0.77,1.16
2026-06-21 23:23:24.940,1.37,-0.41,0.34,2.04
2026-06-21 23:23:24.941,0.1,-0.17,0.76,-0.82
2026-06-21 23:23:24.942,0.5,-0.75,0.74,-0.61
2026-06-21 23:23:24.943,-0.18,0.64,1.16,1.86
2026-06-21 23:23:24.944,-0.94,0.02,1.52,-1.61
2026-06-21 23:23:24.945,-0.65,-0.58,1.86,-2.26
2026-06-21 23:23:24.946,0,-0.31,2.59,0.38
2026-06-21 23:23:24.947,1.27,-0.17,0.92,0.09
2026-06-21 23:23:24.948,0.77,0.96,-2.87,-3.35
2026-06-21 23:23:24.949,0.95,0,-2.3,-1.32
2026-06-21 23:23:24.950,0.55,-0.77,1.03,3.04
2026-06-21 23:23:24.951,-0.88,-0.09,-1.11,0.39
2026-06-21 23:23:24.952,0.36,0.84,-0.77,-0.7
2026-06-21 23:23:24.953,-0.44,-0.46,-0.42,0.35
2026-06-21 23:23:24.954,-1.38,0.3,-2.24,0.36
2026-06-21 23:23:24.955,0.11,0.55,-0.35,-1.14
2026-06-21 23:23:24.956,0.7,-0.2,0.45,-0.16
2026-06-21 23:23:24.957,0.06,2.65,1.69,2.34
2026-06-21 23:23:24.958,-0.47,0.44,3.02,1.62
2026-06-21 23:23:24.959,0.13,-1.12,0.61,0.6
2026-06-21 23:23:24.960,-0.01,0.09,-1.19,1.81
2026-06-21 23:23:24.961,-1.37,-0.11,-4.67,1.37
2026-06-21 23:23:24.962,0.71,-0.9,-3.32,-1.08
2026-06-21 23:23:24.963,0.07,-0.85,3.62,-1.82
2026-06-21 23:23:24.964,-1.51,0.71,4.22,-0.81
2026-06-21 23:23:24.965,-0.03,-1.15,0.87,-0.42
2026-06-21 23:23:24.966,0.1,-0.49,-1.28,-0.52
2026-06-21 23:23:24.967,0.11,1.51,-3,-0.12
2026-06-21 23:23:24.968,0.81,-0.11,-4.44,-0.32
2026-06-21 23:23:24.969,0.33,-1.19,0.95,-0.94
2026-06-21 23:23:24.970,-0.03,0.92,2.99,-0.16
2026-06-21 23:23:24.971,0.64,1.04,-0.3,1.15
2026-06-21 23:23:24.972,-0.13,0.26,-1.66,-0.16
2026-06-21 23:23:24.973,-0.53,1.24,-1.41,0.04
2026-06-21 23:23:24.974,0.63,0.01,1.02,-0.44
2026-06-21 23:23:24.975,1.46,-1.34,1.11,-0.27
2026-06-21 23:23:24.976,0.79,0.44,1.54,0.86
2026-06-21 23:23:24.977,0.22,0.87,1.43,0.88
2026-06-21 23:23:24.978,0.34,-0.66,-1.11,1.53
2026-06-21 23:23:24.979,2.17,-0.13,-0.05,-1.41
2026-06-21 23:23:24.980,0.77,0.7,0.07,-1.56
2026-06-21 23:23:24.995,0.18,-0.56,0.23,2.76
2026-06-21 23:23:24.996,1.35,-0.8,1.51,1.44
2026-06-21 23:23:24.997,-3.07,0.23,0.95,-2.29
2026-06-21 23:23:24.998,-5,1.18,-1.75,-1.34
2026-06-21 23:23:24.999,-1.04,-0.05,-2.94,-0.2
2026-06-21 23:23:25.000,-0.6,-1.49,0.21,-1.04
2026-06-21 23:23:25.001,-1.31,-0.37,2.47,-1.2
2026-06-21 23:23:25.002,0.17,-0.37,1.7,-0.14
2026-06-21 23:23:25.003,-0.12,-0.52,3.81,0.19
2026-06-21 23:23:25.004,-0.03,0.52,2.38,1.67
2026-06-21 23:23:25.005,1.16,1.91,-3.45,2.35
2026-06-21 23:23:25.006,1.07,0.34,-1.34,2.09
2026-06-21 23:23:25.007,0.26,-0.16,1.48,1.43
2026-06-21 23:23:25.008,0.44,0.77,3.93,1.15
2026-06-21 23:23:25.009,1.05,-0.69,1.52,1.53
2026-06-21 23:23:25.010,0.61,-0.2,-5.71,-2.14
2026-06-21 23:23:25.011,-0.55,0.97,-2.39,-2.88
2026-06-21 23:23:25.012,0.17,1.34,1.3,-1.41
2026-06-21 23:23:25.013,0.04,0.08,-0.74,-1.02
2026-06-21 23:23:25.014,-0.01,-0.2,1.88,1.33
2026-06-21 23:23:25.015,0.48,0.71,0.09,-1.23
2026-06-21 23:23:25.016,-0.1,-0.22,-2.97,-2.74
2026-06-21 23:23:25.017,0.15,-0.16,-1.19,-0.74
2026-06-21 23:23:25.018,-0.2,-0.43,-1.74,0.22
2026-06-21 23:23:25.019,-0.12,-1.87,-2.42,1.74
2026-06-21 23:23:25.020,0.52,-1.46,-0.52,1.2
2026-06-21 23:23:25.021,-0.41,-0.52,1.32,1.49
2026-06-21 23:23:25.022,-0.23,-0.99,0.85,0.26
2026-06-21 23:23:25.023,0.98,0.08,-0.53,-0.88
2026-06-21 23:23:25.024,-1.12,-0.7,-0.01,-0.76
2026-06-21 23:23:25.025,-1.32,-0.03,-1.76,0.67
2026-06-21 23:23:25.026,0.29,4.72,0.16,2.42
2026-06-21 23:23:25.027,-0.4,2.79,2,-0.64
2026-06-21 23:23:25.028,-0.48,-1.59,-1.66,-1.93
2026-06-21 23:23:25.029,-0.38,-1.58,4.11,-2.55
2026-06-21 23:23:25.030,-0.31,-1.53,5.35,0.43
2026-06-21 23:23:25.031,-0.34,-1.76,1.25,0.82
2026-06-21 23:23:25.032,-0.05,0.91,2.93,-0.48
2026-06-21 23:23:25.033,0.55,2.03,0.16,2.99
2026-06-21 23:23:25.034,0.24,-0.8,-3.83,-1.49
2026-06-21 23:23:25.035,-0.04,-2.74,-3.77,-1.91
2026-06-21 23:23:25.036,-0.31,-1.95,-1.58,-0.8
2026-06-21 23:23:25.037,0.27,1.5,-1.09,-1.94
2026-06-21 23:23:25.038,0.73,1.54,1.77,2.64
2026-06-21 23:23:25.039,0.62,0.32,2.5,2.13
2026-06-21 23:23:25.040,1.05,0.4,3.07,1.13
2026-06-21 23:23:25.041,0.08,-0.24,3.82,0.95
2026-06-21 23:23:25.042,-0.94,3.21,-3.44,-1.87
2026-06-21 23:23:25.043,0.35,2.86,-5.76,-0.18
2026-06-21 23:23:25.044,1.82,-1.74,-3.19,0.53
2026-06-21 23:23:25.031,2.27,-1.08,-3.75,-3.09
2026-06-21 23:23:25.032,1.4,-0.38,-1.23,-2.58
2026-06-21 23:23:25.033,-3.16,-0.82,3.15,2.61
2026-06-21 23:23:25.034,-3.73,-0.68,1.56,2.86
2026-06-21 23:23:25.035,-1.59,-0.62,-2.18,0.62
2026-06-21 23:23:25.036,-2.01,-0.3,-1.15,0.17
2026-06-21 23:23:25.037,0.21,-0.44,-0.6,-1.35
2026-06-21 23:23:25.038,2.43,-0.91,-1.73,-1.61
2026-06-21 23:23:25.039,1.25,-0.23,-0.33,-0.8
2026-06-21 23:23:25.040,-0.37,-0.17,1.92,-1.1
2026-06-21 23:23:25.041,-0.16,-0.82,6.4,1.67
2026-06-21 23:23:25.042,0,-0.29,6.46,1.64
2026-06-21 23:23:25.043,-0.08,0.04,3.46,-0.46
2026-06-21 23:23:25.044,0.49,-0.41,2.5,2.42
2026-06-21 23:23:25.045,-1.17,-2.5,1.58,2.72
2026-06-21 23:23:25.046,-1.17,-0.35,-1.17,-0.32
2026-06-21 23:23:25.047,1.5,3.64,-3.42,-1.33
2026-06-21 23:23:25.048,1.1,3.7,-0.07,0.28
2026-06-21 23:23:25.049,0.24,2.89,-0.31,-0.74
2026-06-21 23:23:25.050,0.96,-0.39,-4.1,-1.44
2026-06-21 23:23:25.051,0.56,-2.42,-3.29,-0.99
2026-06-21 23:23:25.052,0.94,-0.45,-0.92,-1.11
2026-06-21 23:23:25.053,0.96,0.09,-1.98,-1.84
2026-06-21 23:23:25.054,-0.81,0.43,-4.7,-0.36
2026-06-21 23:23:25.055,0.15,-0.01,-3.39,1.56
2026-06-21 23:23:25.056,0.37,-0.34,1.54,1.64
2026-06-21 23:23:25.057,0.45,-0.16,4.75,3.93
2026-06-21 23:23:25.058,-0.08,-0.47,4,3.37
2026-06-21 23:23:25.059,-1.71,-0.26,5.41,-0.6
2026-06-21 23:23:25.060,-0.24,-0.81,1.6,-0.95
2026-06-21 23:23:25.061,-1.87,-0.24,-3.33,-0.61
2026-06-21 23:23:25.062,-2.45,-1.37,-1.65,-0.02
2026-06-21 23:23:25.063,0.19,-0.11,-0.37,-1.9
2026-06-21 23:23:25.064,0.04,2.13,0.53,-1.96
2026-06-21 23:23:25.065,0.05,-0.22,-1.09,-2.14
2026-06-21 23:23:25.066,0,1.46,-1.16,-2.33
2026-06-21 23:23:25.067,0.02,2.5,3.75,1.56
2026-06-21 23:23:25.068,0.82,-1.37,2.98,-0.12
2026-06-21 23:23:25.069,0.86,-0.9,-1.06,-0.83
2026-06-21 23:23:25.070,0.11,-0.43,-3.06,0.03
2026-06-21 23:23:25.071,0.23,-0.93,-4.4,0.75
2026-06-21 23:23:25.072,0.2,-1.15,-1.5,-0.73
2026-06-21 23:23:25.073,-0.32,-1.05,1.01,-0.96
2026-06-21 23:23:25.074,0.42,0.53,0.46,1.88
2026-06-21 23:23:25.075,0.7,0.3,0.24,0.92
2026-06-21 23:23:25.076,-0.07,0.7,0.79,-2.31
2026-06-21 23:23:25.077,1.02,1.67,-1.07,-0.53
2026-06-21 23:23:25.078,1.02,-0.91,0.77,1.65
2026-06-21 23:23:25.079,1.46,-0.61,3.83,2.03
2026-06-21 23:23:25.080,1.4,2.17,3.72,2.81
2026-06-21 23:23:25.095,1.07,0.27,4.61,1.33
2026-06-21 23:23:25.096,-0.46,-0.84,-0.16,0.3
2026-06-21 23:23:25.097,-1.92,0.31,-7.17,0.85
2026-06-21 23:23:25.098,-1.37,0.16,-3.42,-0.78
2026-06-21 23:23:25.099,-2.16,0.54,1.43,-2.43
2026-06-21 23:23:25.100,-0.52,0.34,0.94,-2.2
2026-06-21 23:23:25.101,-1.23,0.03,-1.46,-1.53
2026-06-21 23:23:25.102,-2.25,-0.2,-5.53,0.08
2026-06-21 23:23:25.103,0.62,-0.58,-1.18,-1.43
2026-06-21 23:23:25.104,0.09,0.19,2.68,-0.97
2026-06-21 23:23:25.105,-1.06,-0.64,2.14,1.13
2026-06-21 23:23:25.106,0.33,-0.11,1.85,0.14
2026-06-21 23:23:25.107,0.59,-0.93,-0.58,-0.84
2026-06-21 23:23:25.108,0.4,-2.98,-0.22,-0.39
2026-06-21 23:23:25.109,0.75,-1.1,-1.1,0.4
2026-06-21 23:23:25.110,2.05,0.87,-0.47,0.97
2026-06-21 23:23:25.111,-0.02,0.48,1.06,-0.12
2026-06-21 23:23:25.112,0.03,-0.3,-0.91,-0.42
2026-06-21 23:23:25.113,0.56,-0.26,2.64,-0.02
2026-06-21 23:23:25.114,-0.24,-0.01,4.01,0.13
2026-06-21 23:23:25.115,0.36,-0.97,0.65,-0.01
2026-06-21 23:23:25.116,0.25,3.77,-0.58,0.9
2026-06-21 23:23:25.117,0.21,4.63,-3.88,-0.06
2026-06-21 23:23:25.118,1.65,-0.25,-3.99,-1.56
2026-06-21 23:23:25.119,0.78,-0.8,-5.92,0.13
2026-06-21 23:23:25.120,0.02,-0.55,-5.97,-1.36
2026-06-21 23:23:25.121,-0.19,-0.27,1.2,0.84
2026-06-21 23:23:25.122,-2.59,-0.07,5.02,4.04
2026-06-21 23:23:25.123,0.05,-2.35,5.12,2.41
2026-06-21 23:23:25.124,0.84,-1,4.4,2.54
2026-06-21 23:23:25.125,0.55,-0.01,2.22,0.44
2026-06-21 23:23:25.126,0.39,-1.11,-2.88,-1.88
2026-06-21 23:23:25.127,-2.47,-0.06,-3.76,-2.61
2026-06-21 23:23:25.128,-1.1,-0.7,1.99,-1.53
2026-06-21 23:23:25.129,0.44,1.73,3.69,-0.84
2026-06-21 23:23:25.130,0.17,1.94,1.65,-1.34
2026-06-21 23:23:25.131,0.06,0.4,-1.05,0.05
2026-06-21 23:23:25.132,-0.13,-0.77,-4.2,-0.72
2026-06-21 23:23:25.133,-0.24,-0.33,-2.92,-0.51
2026-06-21 23:23:25.134,-1.39,1.79,-0.43,0.51
2026-06-21 23:23:25.135,-0.22,0.16,1.1,0.44
2026-06-21 23:23:25.136,0.21,-0.72,2.01,0.25
2026-06-21 23:23:25.137,0.08,0.42,3.02,2.08
2026-06-21 23:23:25.138,0.88,-0.82,2.1,3.31
2026-06-21 23:23:25.139,1.27,-0.69,-3.3,0.26
2026-06-21 23:23:25.140,0.78,-0.39,-4.07,-1.31
2026-06-21 23:23:25.141,-0.75,0.85,0.69,-0.26
2026-06-21 23:23:25.142,0.92,-0.3,1.56,-0.38
2026-06-21 23:23:25.143,1.85,-0.56,2.4,-0.83
2026-06-21 23:23:25.144,1.29,1.21,1.23,-1.28
2026-06-21 23:23:25.131,2.12,-0.49,-0.81,0.2
2026-06-21 23:23:25.132,-0.88,-0.27,1.05,-0.11
2026-06-21 23:23:25.133,-3.1,0.16,-3.82,-0.21
2026-06-21 23:23:25.134,-0.61,0.72,-7.64,2.63
2026-06-21 23:23:25.135,0.15,2.5,-1.25,2.53
2026-06-21 23:23:25.136,-1.06,0.78,1.77,0.81
2026-06-21 23:23:25.137,-2.45,0.31,1.95,0.67
2026-06-21 23:23:25.138,-2.48,-0.05,4.06,-1.02
2026-06-21 23:23:25.139,0.53,-2.8,2.03,-0.05
2026-06-21 23:23:25.140,2.23,-2.22,-0.37,0.36
2026-06-21 23:23:25.141,0.33,-1.52,1.72,-0.78
2026-06-21 23:23:25.142,-0.31,0.56,1.01,-0.33
2026-06-21 23:23:25.143,0.12,2.01,0.44,-3.58
2026-06-21 23:23:25.144,0.23,-0.86,2.59,-2.14
2026-06-21 23:23:25.145,0.89,-1.42,0.54,-2.1
2026-06-21 23:23:25.146,-0.25,0.63,-1.97,-1.51
2026-06-21 23:23:25.147,-0.59,1.67,0.41,2.82
2026-06-21 23:23:25.148,0.84,2.1,1.16,0.77
2026-06-21 23:23:25.149,0.16,-0.05,-1.66,0.61
2026-06-21 23:23:25.150,0.57,0.44,-3.15,-0.02
2026-06-21 23:23:25.151,-0.15,2.31,-0.2,1.38
2026-06-21 23:23:25.152,-1.15,1.88,2.62,1.48
2026-06-21 23:23:25.153,0.34,-0.76,-1.6,-2.74
2026-06-21 23:23:25.154,0.22,-2.42,-3.64,1.34
2026-06-21 23:23:25.155,0.19,-1.36,-2.48,-0.55
2026-06-21 23:23:25.156,-0.08,-0.5,-5.63,-1.04
2026-06-21 23:23:25.157,-0.72,-1.2,-3.71,1.35
2026-06-21 23:23:25.158,-0.26,-0.99,-0.99,-1.09
2026-06-21 23:23:25.159,-0.07,-1.27,0.07,1.49
2026-06-21 23:23:25.160,-0.31,-1.41,4.9,3.22
2026-06-21 23:23:25.161,-0.17,1.84,5.47,2.18
2026-06-21 23:23:25.162,-0.31,1.31,6.71,1.07
2026-06-21 23:23:25.163,-0.17,-1.43,3.61,-1.81
2026-06-21 23:23:25.164,-0.25,2.03,-2.42,-2.7
2026-06-21 23:23:25.165,-0.07,2.11,-2.75,-1.84
2026-06-21 23:23:25.166,-0.13,-1.69,0.23,-1.92
2026-06-21 23:23:25.167,0.09,-1.41,3.32,-0.32
2026-06-21 23:23:25.168,0.06,-1.72,4.09,1.04
2026-06-21 23:23:25.169,-0.56,-2.3,3.77,0.11
2026-06-21 23:23:25.170,0.42,-1.99,1.18,0.98
2026-06-21 23:23:25.171,1.14,1.77,-3.22,-1.63
2026-06-21 23:23:25.172,1.71,4.09,-3.38,-2
2026-06-21 23:23:25.173,0.45,1.11,-3.41,1.21
2026-06-21 23:23:25.174,-0.99,-0.96,-5.66,-2.16
2026-06-21 23:23:25.175,-0.88,-2.09,-2.95,-1.15
2026-06-21 23:23:25.176,-0.69,1.68,0.73,0.41
2026-06-21 23:23:25.177,0.44,5.23,2.24,-0.29
2026-06-21 23:23:25.178,0.99,0.31,1.16,2.48
2026-06-21 23:23:25.179,1.96,-1.56,-0.54,2.62
2026-06-21 23:23:25.180,1.79,-0.42,0.67,-0.74
2026-06-21 23:23:25.195,0.31,-0.99,1.57,-1.69
2026-06-21 23:23:25.196,0.39,-0.05,-0.99,0.94
2026-06-21 23:23:25.197,-3.34,0.11,-4.16,1.92
2026-06-21 23:23:25.198,-4.75,-1.17,-3.42,-0.54
2026-06-21 23:23:25.199,-0.07,-0.45,2.36,0.94
2026-06-21 23:23:25.200,-0.68,0.86,4.26,2.58
2026-06-21 23:23:25.201,0.12,-0.35,0.81,0.88
2026-06-21 23:23:25.202,1.53,-1.08,-0.56,-2.3
2026-06-21 23:23:25.203,-0.84,-0.38,-0.81,-1.57
2026-06-21 23:23:25.204,0.08,-0.84,0.05,0.78
2026-06-21 23:23:25.205,0.94,-0.32,2.51,-0.16
2026-06-21 23:23:25.206,0.38,-0.09,4.51,0.97
2026-06-21 23:23:25.207,0.27,-0.24,0.79,0.13
2026-06-21 23:23:25.208,0.51,-0.3,-0.64,-1.89
2026-06-21 23:23:25.209,1.39,-0.24,1.73,-1.03
2026-06-21 23:23:25.210,0.36,-0.55,-0.96,-1.83
2026-06-21 23:23:25.211,1.28,-0.34,-4.06,-2.71
2026-06-21 23:23:25.212,1.5,2.55,-1.88,-1.11
2026-06-21 23:23:25.213,-0.22,0.01,-0.29,0.48
2026-06-21 23:23:25.214,0.33,-0.37,-0.8,2.88
2026-06-21 23:23:25.215,-0.29,1.9,-0.44,0.5
2026-06-21 23:23:25.216,-0.65,-0.38,-2.05,-0.14
2026-06-21 23:23:25.217,-1.32,-1.32,-4.69,0.66
2026-06-21 23:23:25.218,0.09,-0.83,-4,-2.62
2026-06-21 23:23:25.219,1.56,-1.16,1.17,-0.18
2026-06-21 23:23:25.220,-0.84,-1.48,5.27,3.32
2026-06-21 23:23:25.221,-1.78,1.55,5.31,3.97
2026-06-21 23:23:25.222,-1.13,5.13,3.94,2.29
2026-06-21 23:23:25.223,-0.28,0.89,1.84,-0.1
2026-06-21 23:23:25.224,0.2,-1.6,1.03,2.68
2026-06-21 23:23:25.225,-1.29,0.88,1.65,0.81
2026-06-21 23:23:25.226,0.14,0.64,1.84,-2.76
2026-06-21 23:23:25.227,2.44,0.27,-0.93,-0.89
2026-06-21 23:23:25.228,0.05,-2.82,-4.97,-2.1
2026-06-21 23:23:25.229,0.12,-0.21,-1.63,-1.6
2026-06-21 23:23:25.230,0.65,2.67,0.49,-0.16
2026-06-21 23:23:25.231,-0.52,-0.18,-3.05,0.03
2026-06-21 23:23:25.232,-0.07,0.68,-1.77,0.1
2026-06-21 23:23:25.233,0.26,0.85,-0.86,0
2026-06-21 23:23:25.234,0.25,-2.47,-2.9,0.31
2026-06-21 23:23:25.235,0.17,-1.24,-0.93,-0.05
2026-06-21 23:23:25.236,0.73,-1.1,1.67,0.46
2026-06-21 23:23:25.237,0.05,-0.74,0.58,-0.14
2026-06-21 23:23:25.238,-0.3,-0.77,-0.61,-1.13
2026-06-21 23:23:25.239,0.04,-1.86,2.03,-0.2
2026-06-21 23:23:25.240,0.13,0.34,0.21,0.14
2026-06-21 23:23:25.241,0.29,3.53,-1.26,-1.94
2026-06-21 23:23:25.242,0.33,1.27,-1.51,-1.12
2026-06-21 23:23:25.243,0.82,-0.57,0.73,1.73
2026-06-21 23:23:25.244,1.13,-0.31,3.32,-0.3
2026-06-21 23:23:25.232,1.56,-1.46,3.23,-0.89
2026-06-21 23:23:25.233,0.21,-0.02,2.72,0.37
2026-06-21 23:23:25.234,-4.25,-1.95,-2.95,0.25
2026-06-21 23:23:25.235,-4.62,0.63,-2.34,2.27
2026-06-21 23:23:25.236,-1.68,-0.38,5.65,2.7
2026-06-21 23:23:25.237,0.09,3.07,3.67,0.56
2026-06-21 23:23:25.238,1.47,8.12,-2.61,0.43
2026-06-21 23:23:25.239,1.54,-0.97,-1.8,0.64
2026-06-21 23:23:25.240,1.25,-2.89,-0.74,-0.9
2026-06-21 23:23:25.241,-0.15,0.37,-1.47,-2.32
2026-06-21 23:23:25.242,-0.64,-1.42,-2.29,-0.44
2026-06-21 23:23:25.243,0.68,0.32,-1.25,0.18
2026-06-21 23:23:25.244,0.5,-0.52,1.32,-1.35
2026-06-21 23:23:25.245,0.04,-0.11,1.28,0.33
2026-06-21 23:23:25.246,0.01,-0.21,0.23,0.93
2026-06-21 23:23:25.247,0.1,-2.73,4.09,-0.32
2026-06-21 23:23:25.248,0.48,-1.81,0.89,-1.39
2026-06-21 23:23:25.249,-0.07,-0.53,-4.83,-0.33
2026-06-21 23:23:25.250,0.41,-0.59,-3.72,1.28
2026-06-21 23:23:25.251,1.99,-1.38,-3.15,0.3
2026-06-21 23:23:25.252,0.42,-1.27,0.27,-1.49
2026-06-21 23:23:25.253,-0.73,-1.46,2.03,0.99
2026-06-21 23:23:25.254,-0.32,1.32,0.63,0.39
2026-06-21 23:23:25.255,-0.35,3.28,0.89,-2.15
2026-06-21 23:23:25.256,-0.16,1.67,3.12,-0.8
2026-06-21 23:23:25.257,-0.02,-0.09,4.02,0.98
2026-06-21 23:23:25.258,-1.72,-1.02,0,1.37
2026-06-21 23:23:25.259,-0.26,-0.17,-1.18,0.21
2026-06-21 23:23:25.260,0.49,1.36,-0.62,0.42
2026-06-21 23:23:25.261,-0.38,1.23,-3.2,2.88
2026-06-21 23:23:25.262,0.41,0.84,-3.92,0.91
2026-06-21 23:23:25.263,-0.66,-0.73,0.12,-2.13
2026-06-21 23:23:25.264,0.66,1.43,2.76,-1.06
2026-06-21 23:23:25.265,-0.3,1.22,-0.09,-0.93
2026-06-21 23:23:25.266,-1.37,-1.22,-1.57,-1.41
2026-06-21 23:23:25.267,0.28,0.44,-0.74,-0.71
2026-06-21 23:23:25.268,-0.54,-1.34,-1.12,-0.39
2026-06-21 23:23:25.269,-0.28,-2.08,-0.65,-0.66
2026-06-21 23:23:25.270,-0.04,-1.96,-1.18,0.54
2026-06-21 23:23:25.271,-0.65,-2.08,1.13,-0.12
2026-06-21 23:23:25.272,0.5,1.55,3.15,0.7
2026-06-21 23:23:25.273,-0.37,-0.92,3.17,0.25
2026-06-21 23:23:25.274,0.52,-0.77,2.48,-0.03
2026-06-21 23:23:25.275,0.52,3.23,1.98,-0.07
2026-06-21 23:23:25.276,0.74,1.75,0.24,0.55
2026-06-21 23:23:25.277,2.28,-0.32,-3.82,1.57
2026-06-21 23:23:25.278,0.91,-1.32,0.32,-0.08
2026-06-21 23:23:25.279,0.34,0.18,1.32,0.52
2026-06-21 23:23:25.280,0.22,2.14,-0.69,-0.3
2026-06-21 23:23:25.281,0.93,0.51,0.53,-0.31
2026-06-21 23:23:25.294,1.22,-1.45,-2.83,1.21
2026-06-21 23:23:25.295,-0.15,0.77,-1.84,-0.77
2026-06-21 23:23:25.296,-1.65,-1.34,2.01,-0.69
2026-06-21 23:23:25.297,-2.26,-1.26,-0.13,-0.3
2026-06-21 23:23:25.298,-1.25,1.87,-2.53,1.13
2026-06-21 23:23:25.299,-0.67,1.09,-0.21,2.18
2026-06-21 23:23:25.300,-0.89,0.67,0.81,-0.96
2026-06-21 23:23:25.301,-0.86,-0.17,-0.56,0.01
2026-06-21 23:23:25.302,0.13,-0.39,3.72,-0.14
2026-06-21 23:23:25.303,1.3,0.12,2.29,-2.03
2026-06-21 23:23:25.304,0.09,-2.48,0.36,-1.79
2026-06-21 23:23:25.305,-0.38,-0.03,-0.73,0.76
2026-06-21 23:23:25.306,-1.06,-0.3,-6.74,1.21
2026-06-21 23:23:25.307,-0.36,-3.23,-4.83,-0.26
2026-06-21 23:23:25.308,1.71,-0.44,-2.04,0.25
2026-06-21 23:23:25.309,0.26,-0.49,4.55,-0.47
2026-06-21 23:23:25.310,-0.12,-0.28,5.6,-1.38
2026-06-21 23:23:25.311,0.69,0.48,-0.58,1.16
2026-06-21 23:23:25.312,0.48,-0.25,2.09,2.56
2026-06-21 23:23:25.313,1.21,1.73,4.25,-0.27
2026-06-21 23:23:25.314,1.05,3.58,1.94,-0.42
2026-06-21 23:23:25.315,1.03,2.39,-2.31,-0.21
2026-06-21 23:23:25.316,0.05,2.74,-3.22,-1.73
2026-06-21 23:23:25.317,-2.42,2.34,-1.06,-1.62
2026-06-21 23:23:25.318,0.1,-0.51,-2.17,0.02
2026-06-21 23:23:25.319,0.24,-1.45,-1.28,0.16
2026-06-21 23:23:25.320,-1.35,-0.71,-0.21,0.16
2026-06-21 23:23:25.321,-0.13,-1.29,2.62,1.18
2026-06-21 23:23:25.322,-0.82,-0.85,-0.63,0.15
2026-06-21 23:23:25.323,-0.02,-1.35,-4.67,1.66
2026-06-21 23:23:25.324,0.19,-0.89,-0.49,4.16
2026-06-21 23:23:25.325,-1.35,0.11,-1.51,-1.26
2026-06-21 23:23:25.326,-0.31,-0.98,-1.67,-2.53
2026-06-21 23:23:25.327,0.41,0.19,0.52,0.39
2026-06-21 23:23:25.328,0.2,-0.42,3.64,-1.4
2026-06-21 23:23:25.329,0.55,-1.19,5.4,-0.78
2026-06-21 23:23:25.330,0.07,0.32,3.34,-0.7
2026-06-21 23:23:25.331,-0.14,-1.24,1.33,-1.08
2026-06-21 23:23:25.332,1.02,-0.13,1.5,0.83
2026-06-21 23:23:25.333,-0.23,1.68,0.99,1.6
2026-06-21 23:23:25.334,-1.74,-0.62,-1.69,1.77
2026-06-21 23:23:25.335,0.52,-1.6,-3.68,0.06
2026-06-21 23:23:25.336,1,0.27,-1.63,-1.16
2026-06-21 23:23:25.337,0.7,1.59,-0.47,0.01
2026-06-21 23:23:25.338,0.53,1.86,-0.73,-0.24
2026-06-21 23:23:25.339,0.16,0.89,-0.72,-0.02
2026-06-21 23:23:25.340,0.96,0.12,0.89,0.51
2026-06-21 23:23:25.341,1.28,0.39,1.08,-0.19
2026-06-21 23:23:25.342,1.46,0.69,-2.47,-0.4
2026-06-21 23:23:25.343,1.73,0.86,-2.06,-0.5
2026-06-21 23:23:25.331,0.29,0.46,1.16,-1.47
2026-06-21 23:23:25.332,-0.9,-0.21,2.57,0.88
2026-06-21 23:23:25.333,-4.34,0.42,0.88,2.04
2026-06-21 23:23:25.334,-5.19,0.21,-1.77,-1
2026-06-21 23:23:25.335,-0.24,-0.99,-0.76,-1.46
2026-06-21 23:23:25.336,1.17,0.63,1.9,0.12
2026-06-21 23:23:25.337,0.01,0.84,-0.74,0.73
2026-06-21 23:23:25.338,0.01,1.02,-1.22,-1.19
2026-06-21 23:23:25.339,0.17,-0.46,1.78,-2.64
2026-06-21 23:23:25.340,-0.42,-2.05,1.33,0.85
2026-06-21 23:23:25.341,-0.52,-0.8,-0.98,3.48
2026-06-21 23:23:25.342,0.78,-1.68,0.87,0.63
2026-06-21 23:23:25.343,0.99,-0.16,0.97,-0.6
2026-06-21 23:23:25.344,0.54,-0.16,-1.11,0.44
2026-06-21 23:23:25.345,0.78,-3.09,-0.19,0.95
2026-06-21 23:23:25.346,0.37,-0.79,-1.14,0.49
2026-06-21 23:23:25.347,0.54,0.37,-0.46,-0.79
2026-06-21 23:23:25.348,1.1,-1.1,3.43,-0.89
2026-06-21 23:23:25.349,1.86,-0.54,3.69,-0.21
2026-06-21 23:23:25.350,0.25,4.6,-1.67,1.03
2026-06-21 23:23:25.351,-0.78,5.68,-5.25,-0.46
2026-06-21 23:23:25.352,1.07,-0.11,-1.99,-1.83
2026-06-21 23:23:25.353,1.25,-0.56,-2,0.31
2026-06-21 23:23:25.354,-0.44,-1.1,-2.11,1.45
2026-06-21 23:23:25.355,-0.67,-0.5,1.95,2.34
2026-06-21 23:23:25.356,-1.35,0.16,2.3,0.52
2026-06-21 23:23:25.357,-2.54,-1.99,1.62,-0.09
2026-06-21 23:23:25.358,-1.54,-1.66,1.92,1.29
2026-06-21 23:23:25.359,-0.47,-2.19,2.65,-1.07
2026-06-21 23:23:25.360,-0.2,-0.93,1.73,1.01
2026-06-21 23:23:25.361,0.94,-2.72,-4.34,1.51
2026-06-21 23:23:25.362,1.06,-1.72,-4.54,-2.31
2026-06-21 23:23:25.363,0.1,4.99,-0.12,-2.26
2026-06-21 23:23:25.364,0.06,4.37,-0.69,-1.18
2026-06-21 23:23:25.365,0.09,1.15,1.23,-0.44
2026-06-21 23:23:25.366,0.04,0.58,2.04,-0.28
2026-06-21 23:23:25.367,0.09,1.65,1.72,-0.38
2026-06-21 23:23:25.368,0.15,0.29,1.6,1.29
2026-06-21 23:23:25.369,-0.76,-1.75,-1.52,-0.57
2026-06-21 23:23:25.370,0.45,0.43,0.83,-0.29
2026-06-21 23:23:25.371,-0.16,0.07,2.62,1.57
2026-06-21 23:23:25.372,-1.65,-1.32,-2.1,-1.5
2026-06-21 23:23:25.373,0.66,-1.52,-1.88,-0.64
2026-06-21 23:23:25.374,1.53,-1.37,-3.87,1.66
2026-06-21 23:23:25.375,0.17,-0.71,-3.75,-0.46
2026-06-21 23:23:25.376,0.66,-0.73,0.84,-1.44
2026-06-21 23:23:25.377,0.52,0.27,2.32,-0.53
2026-06-21 23:23:25.378,0.68,-1.24,2.13,-0.45
2026-06-21 23:23:25.379,1.02,-0.87,1.07,0.93
2026-06-21 23:23:25.380,0.7,1.19,2.02,1.46
2026-06-21 23:23:25.395,1.74,-0.49,0.12,0.61
2026-06-21 23:23:25.396,-0.98,-0.26,-5.17,1.35
2026-06-21 23:23:25.397,-2.23,1.3,0.64,1.64
2026-06-21 23:23:25.398,-0.14,0.6,3.9,-0.94
2026-06-21 23:23:25.399,-1.91,-0.06,-1,-1.27
2026-06-21 23:23:25.400,-1.24,0.61,0.21,-1.74
2026-06-21 23:23:25.401,0.23,0.89,-2.66,0.77
2026-06-21 23:23:25.402,-1.55,0.69,-3.11,2.17
2026-06-21 23:23:25.403,0.81,0.14,2.75,-1.27
2026-06-21 23:23:25.404,0.09,0,4.29,0.02
2026-06-21 23:23:25.405,-0.07,0.14,-0.71,0.44
2026-06-21 23:23:25.406,1.6,-0.73,-2.11,-2.07
2026-06-21 23:23:25.407,-1.28,-0.65,0.79,-1.5
2026-06-21 23:23:25.408,-0.61,0.07,-2.6,-1.4
2026-06-21 23:23:25.409,0.38,0.12,-2.73,1.08
2026-06-21 23:23:25.410,-0.52,0.05,3.14,2.25
2026-06-21 23:23:25.411,0.68,0.04,1.55,-1.83
2026-06-21 23:23:25.412,-0.1,0,0.78,-0.12
2026-06-21 23:23:25.413,-0.23,-0.07,3.47,-0.22
2026-06-21 23:23:25.414,0.89,-0.1,2.66,-1.39
2026-06-21 23:23:25.415,0.58,-0.23,0.7,-0.07
2026-06-21 23:23:25.416,0.36,0.55,-0.06,2.03
2026-06-21 23:23:25.417,-0.23,0.34,-2.12,2.76
2026-06-21 23:23:25.418,-0.01,-0.45,-4.37,-1.16
2026-06-21 23:23:25.419,-0.34,-0.7,-2.74,0.5
2026-06-21 23:23:25.420,-0.15,-0.81,-1.97,1.77
2026-06-21 23:23:25.421,0.24,-0.9,-1.22,-0.96
2026-06-21 23:23:25.422,-0.17,-0.48,0.9,-1.34
2026-06-21 23:23:25.423,0.03,0.55,0.65,-0.55
2026-06-21 23:23:25.424,-0.18,2.28,1.33,3.28
2026-06-21 23:23:25.425,-0.97,2.91,0.65,2.51
2026-06-21 23:23:25.426,-0.1,1.17,0.13,-1.36
2026-06-21 23:23:25.427,1.24,-0.98,0.79,-1.74
2026-06-21 23:23:25.428,-0.09,-0.54,-2.18,-1.44
2026-06-21 23:23:25.429,-0.29,0.79,-1.74,-0.18
2026-06-21 23:23:25.430,-0.18,-0.55,0.96,-0.33
2026-06-21 23:23:25.431,-0.92,-0.51,0.73,-0.85
2026-06-21 23:23:25.432,-0.14,0.26,0.47,-0.4
2026-06-21 23:23:25.433,-0.02,-0.31,1.71,-0.63
2026-06-21 23:23:25.434,0.09,-1.17,2.04,-1.59
2026-06-21 23:23:25.435,0.11,-0.24,1.22,-0.31
2026-06-21 23:23:25.436,-0.43,0.66,2.46,1.79
2026-06-21 23:23:25.437,0.39,-0.33,4,-0.2
2026-06-21 23:23:25.438,0.65,-0.59,2.31,-0.23
2026-06-21 23:23:25.439,0.81,-0.58,-2.3,1.2
2026-06-21 23:23:25.440,0.99,-1.09,-3.24,1.01
2026-06-21 23:23:25.441,1.26,0.05,-1.53,0.95
2026-06-21 23:23:25.442,1.47,-1.07,-3.64,0.65
2026-06-21 23:23:25.443,-0.83,-0.68,-3.07,-1.08
2026-06-21 23:23:25.444,-1.09,2.06,-3.22,-2.9
2026-06-21 23:23:25.432,1.8,0.93,-3.91,0.09
2026-06-21 23:23:25.433,0.95,-1.02,1.1,1.36
2026-06-21 23:23:25.434,-4.46,0.19,3.02,0.51
2026-06-21 23:23:25.435,-5.14,2.34,0.82,-0.72
2026-06-21 23:23:25.436,-0.52,1.1,1.2,-1.62
2026-06-21 23:23:25.437,2.01,-0.53,1.42,0.71
2026-06-21 23:23:25.438,1.09,-0.39,-0.2,1.72
2026-06-21 23:23:25.439,-1.53,-1.12,1.73,-0.86
2026-06-21 23:23:25.440,-0.39,-1,-0.08,-1.13
2026-06-21 23:23:25.441,2,0.59,0.13,1.64
2026-06-21 23:23:25.442,0.46,-0.18,1.79,0.92
2026-06-21 23:23:25.443,1.07,-0.9,-0.1,-0.46
2026-06-21 23:23:25.444,0.2,-0.28,1.87,3.38
2026-06-21 23:23:25.445,-0.43,-0.16,-1.1,1.1
2026-06-21 23:23:25.446,0.76,-0.37,0.04,-2.44
2026-06-21 23:23:25.447,-0.52,-0.36,4.06,-0.47
2026-06-21 23:23:25.448,-0.03,1.19,-1.63,-0.54
2026-06-21 23:23:25.449,1.57,2.62,-1.51,-0.02
2026-06-21 23:23:25.450,1.63,1.16,1.33,-1.4
2026-06-21 23:23:25.451,0.42,-0.65,-1.29,-0.96
2026-06-21 23:23:25.452,-0.75,-0.45,-0.59,-0.02
2026-06-21 23:23:25.453,-0.73,-0.71,1.13,-1.25
2026-06-21 23:23:25.454,0.81,-0.38,-0.29,0.07
2026-06-21 23:23:25.455,0.5,0.9,-2.74,1.32
2026-06-21 23:23:25.456,-0.07,-0.5,0.13,-0.39
2026-06-21 23:23:25.457,-0.58,-0.48,-0.48,-1.81
2026-06-21 23:23:25.458,-0.29,0.86,-4.06,1.02
2026-06-21 23:23:25.459,0.19,-0.37,-1.24,2.05
2026-06-21 23:23:25.460,-1.55,-0.82,0.22,1.05
2026-06-21 23:23:25.461,-1.1,-0.48,-1.09,2.15
2026-06-21 23:23:25.462,0.24,-0.06,-0.15,0.79
2026-06-21 23:23:25.463,-0.76,0.09,0.33,0.28
2026-06-21 23:23:25.464,-0.12,-0.97,0.45,-0.6
2026-06-21 23:23:25.465,1.02,0.73,0.75,-2.3
2026-06-21 23:23:25.466,-0.26,2.02,1.91,-1.34
2026-06-21 23:23:25.467,-1.28,-0.26,2.68,-1.2
2026-06-21 23:23:25.468,-0.19,-1.21,1.73,-0.58
2026-06-21 23:23:25.469,1,-0.56,-0.14,-1.27
2026-06-21 23:23:25.470,0.06,-0.39,0.71,-0.74
2026-06-21 23:23:25.471,0.03,-1.62,2.93,-0.82
2026-06-21 23:23:25.472,0.34,-1.16,2.9,-0.24
2026-06-21 23:23:25.473,0.64,1.44,3.21,2.07
2026-06-21 23:23:25.474,-0.17,1.96,2.54,-0.09
2026-06-21 23:23:25.475,0.56,1.63,0.62,1.4
2026-06-21 23:23:25.476,0.86,0.22,-6.79,2.21
2026-06-21 23:23:25.477,0.59,-1.2,-9.8,-0.83
2026-06-21 23:23:25.478,1.2,0.22,-4.69,-0.63
2026-06-21 23:23:25.479,0.62,0.68,-1.45,0.57
2026-06-21 23:23:25.480,0.94,0.39,0.37,1.79
2026-06-21 23:23:25.481,1.55,0.08,1.42,0.91
2026-06-21 23:23:25.495,2.38,-0.22,2.78,-1.13
2026-06-21 23:23:25.496,-0.66,-0.57,2.47,-0.4
2026-06-21 23:23:25.497,-4.26,-0.86,-1.22,0.7
2026-06-21 23:23:25.498,-5.21,-0.47,-1.89,-0.91
2026-06-21 23:23:25.499,-1.65,-0.83,-0.58,-1.54
2026-06-21 23:23:25.500,1.46,0.49,-0.53,0.28
2026-06-21 23:23:25.501,-1.2,1.5,0.58,0.64
2026-06-21 23:23:25.502,-0.37,-0.19,4.42,2.76
2026-06-21 23:23:25.503,1.11,-0.82,7.08,-0.05
2026-06-21 23:23:25.504,0.14,-0.17,3.11,-1.54
2026-06-21 23:23:25.505,1.24,-0.72,-1.1,0.91
2026-06-21 23:23:25.506,-0.74,-0.06,-1.83,-2.22
2026-06-21 23:23:25.507,-1.37,0.96,-3.06,-1.38
2026-06-21 23:23:25.508,1.18,-0.01,-0.04,2.28
2026-06-21 23:23:25.509,0.92,-0.43,2.01,1.43
2026-06-21 23:23:25.510,0.66,-0.04,0.79,-0.33
2026-06-21 23:23:25.511,0.91,-0.26,1.21,-2.91
2026-06-21 23:23:25.512,0.88,-0.05,-3.15,-2.89
2026-06-21 23:23:25.513,0.23,-0.24,-5.28,0.02
2026-06-21 23:23:25.514,-0.43,-0.05,-2.04,-0.83
2026-06-21 23:23:25.515,-1.3,-0.36,-0.56,-0.11
2026-06-21 23:23:25.516,0.08,-0.08,1.41,3.75
2026-06-21 23:23:25.517,0.99,1.09,1.52,1.76
2026-06-21 23:23:25.518,-0.02,-0.31,0.05,-1.56
2026-06-21 23:23:25.519,0.92,-0.51,0.2,0.22
2026-06-21 23:23:25.520,-1,0.97,1.15,0.34
2026-06-21 23:23:25.521,-1.46,1.06,-0.77,-1.38
2026-06-21 23:23:25.522,0.55,0.8,-2.36,-0.82
2026-06-21 23:23:25.523,-0.96,-0.66,1.09,-0.03
2026-06-21 23:23:25.524,0.13,-0.81,2.04,3.01
2026-06-21 23:23:25.525,0.01,0.87,0.37,4.58
2026-06-21 23:23:25.526,-1.84,-0.05,1.02,0.25
2026-06-21 23:23:25.527,-0.35,-0.62,-0.7,-1.45
2026-06-21 23:23:25.528,-0.23,0.72,-2.19,-2.16
2026-06-21 23:23:25.529,-0.25,0.23,-0.87,-0.69
2026-06-21 23:23:25.530,-0.53,-0.77,-4.23,0.82
2026-06-21 23:23:25.531,1.02,-0.54,-4.49,0.01
2026-06-21 23:23:25.532,1.44,0.09,0.66,-1.76
2026-06-21 23:23:25.533,-0.79,-0.53,6.75,-0.34
2026-06-21 23:23:25.534,-0.26,0.16,10.81,3.09
2026-06-21 23:23:25.535,0.37,1.05,6.2,0.29
2026-06-21 23:23:25.536,0.86,-0.74,-1.92,-1.95
2026-06-21 23:23:25.537,0.55,-0.35,-7.03,-1.24
2026-06-21 23:23:25.538,0.71,0.54,-3.01,-1.43
2026-06-21 23:23:25.539,1.46,-0.13,1.33,0.37
2026-06-21 23:23:25.540,0.66,0.34,-1.89,1.16
2026-06-21 23:23:25.541,1.74,-0.09,0.37,1.26
2026-06-21 23:23:25.542,1.3,-0.5,0.2,0.25
2026-06-21 23:23:25.543,1.42,-0.11,-3.9,-0.9
2026-06-21 23:23:25.544,1.87,0.34,-1.44,0.79
2026-06-21 23:23:25.531,-0.6,0.7,-0.95,-1.51
2026-06-21 23:23:25.532,-4,0.44,2.29,-1.05
2026-06-21 23:23:25.533,-3.56,-0.02,4.17,2.05
2026-06-21 23:23:25.534,0.33,-1.07,-0.39,0.71
2026-06-21 23:23:25.535,-1.36,1.05,-0.77,1.47
2026-06-21 23:23:25.536,-2.55,2.13,-2.75,2.14
2026-06-21 23:23:25.537,-0.19,1.4,-1.79,-3.06
2026-06-21 23:23:25.538,0.55,-1.02,0.32,-2.41
2026-06-21 23:23:25.539,1.24,-3.26,-0.38,0.04
2026-06-21 23:23:25.540,0.06,-0.76,0.49,-1.25
2026-06-21 23:23:25.541,-2.03,0.44,0.76,-0.8
2026-06-21 23:23:25.542,1.19,-0.38,2.67,0.66
2026-06-21 23:23:25.543,1.69,-0.85,2.45,-0.18
2026-06-21 23:23:25.544,-0.82,-0.15,1.1,0.47
2026-06-21 23:23:25.545,1.6,1.13,2.55,1.09
2026-06-21 23:23:25.546,1.64,-0.2,2.55,0.43
2026-06-21 23:23:25.547,-1.6,-0.59,-0.52,0.98
2026-06-21 23:23:25.548,-0.51,0.29,-3.49,-0.49
2026-06-21 23:23:25.549,1.21,-0.59,-5.41,-2.04
2026-06-21 23:23:25.550,0.74,-0.83,-5.25,-1.43
2026-06-21 23:23:25.551,-0.11,0.3,-4.14,1.53
2026-06-21 23:23:25.552,1.33,2.08,-2.8,-0.04
2026-06-21 23:23:25.553,1.66,2.05,3.63,-1.02
2026-06-21 23:23:25.554,-0.38,2,6.56,2.38
2026-06-21 23:23:25.555,-0.36,-0.24,4.54,0.09
2026-06-21 23:23:25.556,-0.67,-1.07,3.5,-1.77
2026-06-21 23:23:25.557,-0.46,-0.14,-0.54,2.77
2026-06-21 23:23:25.558,-0.21,-1.08,0.47,2
2026-06-21 23:23:25.559,-1.25,0.15,3.15,0.17
2026-06-21 23:23:25.560,-1.23,-1.46,-1.46,1.91
2026-06-21 23:23:25.561,-0.37,-1.06,-2.44,0.5
2026-06-21 23:23:25.562,0.26,-2.05,-0.41,-1.94
2026-06-21 23:23:25.563,-0.25,-3.36,-0.15,-1.69
2026-06-21 23:23:25.564,-0.49,3.59,-1,-2.1
2026-06-21 23:23:25.565,-0.09,3.91,-2.17,-2.3
2026-06-21 23:23:25.566,-0.36,-0.72,-0.98,-0.97
2026-06-21 23:23:25.567,0.14,0.8,-0.49,-0.71
2026-06-21 23:23:25.568,0.61,0.47,1.28,-0.9
2026-06-21 23:23:25.569,0.35,-1.1,1.1,0.07
2026-06-21 23:23:25.570,0.07,-0.78,-2.42,0.49
2026-06-21 23:23:25.571,-0.29,0.36,-2.54,1.78
