# participant=P001 | sex=male | age=22 | weight_kg=68 | height_cm=175
# exercise=stair_descent | trial_no=4 | label=stair_descent | session=2026-06-21T17:54:04.104Z | tz=Asia/Calcutta
datetime_local,muscle1_raw_mV,muscle2_raw_mV,muscle3_raw_mV,muscle4_raw_mV
2026-06-21 23:24:04.079,,,,1492.5
2026-06-21 23:24:04.080,,,,1493.3
2026-06-21 23:24:04.081,,,,1492.5
2026-06-21 23:24:04.082,,,,1494.1
2026-06-21 23:24:04.083,,,,1494.1
2026-06-21 23:24:04.084,,,,1493.3
2026-06-21 23:24:04.085,,,,1494.1
2026-06-21 23:24:04.086,,,,1493.3
2026-06-21 23:24:04.087,,,,1492.5
2026-06-21 23:24:04.088,,,,1494.1
2026-06-21 23:24:04.089,,,,1493.3
2026-06-21 23:24:04.090,,,,1493.3
2026-06-21 23:24:04.091,,,,1492.5
2026-06-21 23:24:04.092,,,,1495.7
2026-06-21 23:24:04.093,,,,1494.1
2026-06-21 23:24:04.094,,,,1494.9
2026-06-21 23:24:04.095,,,,1494.1
2026-06-21 23:24:04.096,,,,1497.3
2026-06-21 23:24:04.097,,,,1495.7
2026-06-21 23:24:04.098,,,,1494.1
2026-06-21 23:24:04.099,,,,1494.1
2026-06-21 23:24:04.100,,,,1494.1
2026-06-21 23:24:04.101,,,,1494.1
2026-06-21 23:24:04.102,,,,1495.7
2026-06-21 23:24:04.103,,,,1497.3
2026-06-21 23:24:04.085,,1237.8,,1493.3
2026-06-21 23:24:04.086,,1238.6,,1494.9
2026-06-21 23:24:04.087,,1238.6,,1493.3
2026-06-21 23:24:04.088,,1239.4,,1494.9
2026-06-21 23:24:04.089,,1239.4,,1499.7
2026-06-21 23:24:04.090,,1240.2,,1494.9
2026-06-21 23:24:04.091,,1240.2,,1495.7
2026-06-21 23:24:04.092,,1240.2,,1495.7
2026-06-21 23:24:04.093,,1237.8,,1495.7
2026-06-21 23:24:04.094,,1240.2,,1493.3
2026-06-21 23:24:04.110,1496.5,1240.2,,1495.7
2026-06-21 23:24:04.111,1492.5,1240.2,,1494.1
2026-06-21 23:24:04.112,1496.5,1241.8,,1497.3
2026-06-21 23:24:04.113,1494.9,1240.2,,1492.5
2026-06-21 23:24:04.114,1494.9,1240.2,,1494.1
2026-06-21 23:24:04.115,1494.9,1240.2,,1497.3
2026-06-21 23:24:04.116,1496.5,1239.4,1462.6,1495.7
2026-06-21 23:24:04.117,1497.3,1240.2,1452.2,1495.7
2026-06-21 23:24:04.118,1494.9,1240.2,1457,1494.1
2026-06-21 23:24:04.119,1499.7,1240.2,1458.6,1494.1
2026-06-21 23:24:04.120,1498.9,1240.2,1457.8,1498.9
2026-06-21 23:24:04.121,1498.1,1241.8,1453.8,1497.3
2026-06-21 23:24:04.122,1497.3,1243.4,1458.6,1494.1
2026-06-21 23:24:04.123,1498.1,1240.2,1457.8,1496.5
2026-06-21 23:24:04.124,1498.9,1240.2,1458.6,1495.7
2026-06-21 23:24:04.125,1499.7,1240.2,1457,1494.1
2026-06-21 23:24:04.126,1498.1,1240.2,1461,1494.1
2026-06-21 23:24:04.127,1499.7,1240.2,1459.4,1493.3
2026-06-21 23:24:04.128,1499.7,1240.2,1461,1494.1
2026-06-21 23:24:04.129,1501.3,1241.8,1461.8,1494.1
2026-06-21 23:24:04.130,1498.9,1246.7,1460.2,1493.3
2026-06-21 23:24:04.131,1500.5,1243.4,1461,1494.1
2026-06-21 23:24:04.132,1499.7,1240.2,1459.4,1492.5
2026-06-21 23:24:04.133,1499.7,1240.2,1460.2,1494.1
2026-06-21 23:24:04.134,1500.5,1240.2,1457.8,1494.1
2026-06-21 23:24:04.135,1497.3,1239.4,1459.4,1492.5
2026-06-21 23:24:04.136,1498.9,1239.4,1459.4,1494.1
2026-06-21 23:24:04.137,1500.5,1240.2,1459.4,1492.5
2026-06-21 23:24:04.138,1501.3,1240.2,1461.8,1494.1
2026-06-21 23:24:04.139,1499.7,1241,1465.1,1496.5
2026-06-21 23:24:04.140,1498.9,1244.2,1464.2,1495.7
2026-06-21 23:24:04.141,1500.5,1242.6,1464.2,1497.3
2026-06-21 23:24:04.142,1499.7,1241.8,1465.1,1497.3
2026-06-21 23:24:04.143,1499.7,1240.2,1465.1,1497.3
2026-06-21 23:24:04.144,1500.5,1240.2,1465.1,1494.1
2026-06-21 23:24:04.145,1500.5,1241.8,1464.2,1493.3
2026-06-21 23:24:04.146,1500.5,1240.2,1460.2,1492.5
2026-06-21 23:24:04.147,1501.3,1240.2,1448.1,1493.3
2026-06-21 23:24:04.148,1501.3,1240.2,1455.4,1492.5
2026-06-21 23:24:04.149,1501.3,1238.6,1457,1492.5
2026-06-21 23:24:04.150,1500.5,1239.4,1455.4,1494.9
2026-06-21 23:24:04.151,1500.5,1235.4,1458.6,1494.1
2026-06-21 23:24:04.152,1501.3,1233.8,1459.4,1494.1
2026-06-21 23:24:04.153,1498.9,1240.2,1464.2,1494.1
2026-06-21 23:24:04.154,1499.7,1244.2,1467.5,1498.9
2026-06-21 23:24:04.155,1498.1,1243.4,1464.2,1497.3
2026-06-21 23:24:04.156,1502.1,1240.2,1462.6,1498.9
2026-06-21 23:24:04.157,1500.5,1240.2,1462.6,1494.1
2026-06-21 23:24:04.158,1499.7,1240.2,1456.2,1493.3
2026-06-21 23:24:04.159,1500.5,1240.2,1456.2,1494.1
2026-06-21 23:24:04.147,1499.7,1240.2,1458.6,1495.7
2026-06-21 23:24:04.148,1498.9,1240.2,1461,1495.7
2026-06-21 23:24:04.149,1493.3,1240.2,1461.8,1494.1
2026-06-21 23:24:04.150,1494.9,1239.4,1461.8,1498.9
2026-06-21 23:24:04.151,1494.9,1240.2,1461.8,1494.1
2026-06-21 23:24:04.152,1494.9,1239.4,1463.4,1495.7
2026-06-21 23:24:04.153,1495.7,1240.2,1461.8,1494.1
2026-06-21 23:24:04.154,1496.5,1240.2,1457.8,1493.3
2026-06-21 23:24:04.155,1498.1,1241.8,1457.8,1495.7
2026-06-21 23:24:04.156,1499.7,1240.2,1459.4,1494.1
2026-06-21 23:24:04.157,1501.3,1244.2,1459.4,1496.5
2026-06-21 23:24:04.158,1498.9,1243.4,1460.2,1495.7
2026-06-21 23:24:04.159,1498.1,1241.8,1459.4,1499.7
2026-06-21 23:24:04.160,1498.9,1242.6,1459.4,1496.5
2026-06-21 23:24:04.161,1494.9,1241.8,1458.6,1494.9
2026-06-21 23:24:04.162,1501.3,1240.2,1457.8,1494.1
2026-06-21 23:24:04.163,1499.7,1240.2,1457.8,1492.5
2026-06-21 23:24:04.164,1498.9,1240.2,1461.8,1492.5
2026-06-21 23:24:04.165,1500.5,1241.8,1456.2,1492.5
2026-06-21 23:24:04.166,1501.3,1240.2,1461,1494.1
2026-06-21 23:24:04.167,1498.9,1240.2,1459.4,1494.1
2026-06-21 23:24:04.168,1499.7,1239.4,1464.2,1494.1
2026-06-21 23:24:04.169,1501.3,1241.8,1463.4,1492.5
2026-06-21 23:24:04.170,1500.5,1241,1463.4,1495.7
2026-06-21 23:24:04.171,1498.1,1240.2,1464.2,1494.1
2026-06-21 23:24:04.172,1500.5,1240.2,1462.6,1492.5
2026-06-21 23:24:04.173,1500.5,1240.2,1457.8,1494.1
2026-06-21 23:24:04.174,1498.9,1240.2,1457.8,1494.1
2026-06-21 23:24:04.175,1498.1,1240.2,1457.8,1493.3
2026-06-21 23:24:04.176,1499.7,1240.2,1460.2,1492.5
2026-06-21 23:24:04.177,1499.7,1241.8,1460.2,1494.1
2026-06-21 23:24:04.178,1502.1,1243.4,1464.2,1493.3
2026-06-21 23:24:04.179,1498.9,1239.4,1459.4,1494.1
2026-06-21 23:24:04.180,1499.7,1240.2,1460.2,1494.1
2026-06-21 23:24:04.181,1501.3,1240.2,1461,1495.7
2026-06-21 23:24:04.182,1502.1,1240.2,1459.4,1493.3
2026-06-21 23:24:04.183,1498.1,1240.2,1461,1494.9
2026-06-21 23:24:04.184,1498.1,1241.8,1459.4,1497.3
2026-06-21 23:24:04.185,1498.9,1240.2,1458.6,1494.1
2026-06-21 23:24:04.186,1498.9,1240.2,1456.2,1495.7
2026-06-21 23:24:04.187,1499.7,1240.2,1463.4,1494.1
2026-06-21 23:24:04.188,1499.7,1240.2,1461.8,1495.7
2026-06-21 23:24:04.189,1498.9,1239.4,1461.8,1495.7
2026-06-21 23:24:04.190,1499.7,1240.2,1465.1,1494.1
2026-06-21 23:24:04.191,1499.7,1240.2,1459.4,1494.1
2026-06-21 23:24:04.192,1499.7,1240.2,1459.4,1497.3
2026-06-21 23:24:04.193,1499.7,1240.2,1461,1494.1
2026-06-21 23:24:04.194,1498.9,1240.2,1464.2,1495.7
2026-06-21 23:24:04.195,1499.7,1240.2,1466.7,1494.1
2026-06-21 23:24:04.196,1501.3,1238.6,1465.1,1496.5
2026-06-21 23:24:04.209,1499.7,1240.2,1465.1,1494.9
2026-06-21 23:24:04.210,1497.3,1238.6,1461.8,1494.1
2026-06-21 23:24:04.211,1494.1,1240.2,1464.2,1498.9
2026-06-21 23:24:04.212,1498.9,1240.2,1464.2,1495.7
2026-06-21 23:24:04.213,1494.1,1240.2,1465.1,1494.1
2026-06-21 23:24:04.214,1494.1,1240.2,1463.4,1496.5
2026-06-21 23:24:04.215,1491.6,1239.4,1459.4,1494.1
2026-06-21 23:24:04.216,1498.1,1236.2,1457,1494.1
2026-06-21 23:24:04.217,1498.1,1244.2,1453,1494.1
2026-06-21 23:24:04.218,1499.7,1240.2,1455.4,1495.7
2026-06-21 23:24:04.219,1500.5,1241.8,1456.2,1495.7
2026-06-21 23:24:04.220,1498.1,1243.4,1455.4,1498.9
2026-06-21 23:24:04.221,1498.1,1240.2,1456.2,1496.5
2026-06-21 23:24:04.222,1498.9,1241.8,1455.4,1495.7
2026-06-21 23:24:04.223,1498.9,1240.2,1455.4,1495.7
2026-06-21 23:24:04.224,1498.9,1240.2,1457.8,1492.5
2026-06-21 23:24:04.225,1498.9,1240.2,1461.8,1491.6
2026-06-21 23:24:04.226,1502.1,1238.6,1465.1,1492.5
2026-06-21 23:24:04.227,1498.1,1240.2,1463.4,1493.3
2026-06-21 23:24:04.228,1498.9,1243.4,1464.2,1492.5
2026-06-21 23:24:04.229,1498.9,1241.8,1465.1,1492.5
2026-06-21 23:24:04.230,1501.3,1240.2,1461.8,1494.1
2026-06-21 23:24:04.231,1499.7,1240.2,1458.6,1493.3
2026-06-21 23:24:04.232,1498.9,1240.2,1456.2,1492.5
2026-06-21 23:24:04.233,1499.7,1241,1456.2,1494.1
2026-06-21 23:24:04.234,1500.5,1240.2,1458.6,1492.5
2026-06-21 23:24:04.235,1502.1,1240.2,1463.4,1494.1
2026-06-21 23:24:04.236,1501.3,1239.4,1465.1,1493.3
2026-06-21 23:24:04.237,1498.9,1240.2,1461,1494.1
2026-06-21 23:24:04.238,1501.3,1240.2,1461.8,1494.1
2026-06-21 23:24:04.239,1501.3,1240.2,1464.2,1493.3
2026-06-21 23:24:04.240,1497.3,1243.4,1464.2,1495.7
2026-06-21 23:24:04.241,1500.5,1244.2,1464.2,1495.7
2026-06-21 23:24:04.242,1501.3,1243.4,1461,1497.3
2026-06-21 23:24:04.243,1500.5,1244.2,1460.2,1494.9
2026-06-21 23:24:04.244,1501.3,1240.2,1455.4,1496.5
2026-06-21 23:24:04.245,1498.9,1240.2,1448.1,1496.5
2026-06-21 23:24:04.246,1499.7,1240.2,1453.8,1494.9
2026-06-21 23:24:04.247,1500.5,1240.2,1461,1492.5
2026-06-21 23:24:04.248,1499.7,1240.2,1464.2,1492.5
2026-06-21 23:24:04.249,1498.9,,1463.4,1493.3
2026-06-21 23:24:04.250,1500.5,1239.4,1464.2,1496.5
2026-06-21 23:24:04.251,1498.9,1237.8,1464.2,1493.3
2026-06-21 23:24:04.252,1499.7,1236.2,1465.9,1495.7
2026-06-21 23:24:04.253,1499.7,1235.4,1453,1494.9
2026-06-21 23:24:04.254,1498.9,1236.2,1455.4,1494.1
2026-06-21 23:24:04.255,1498.1,1236.2,1459.4,1495.7
2026-06-21 23:24:04.256,1500.5,1238.6,1464.2,1494.1
2026-06-21 23:24:04.257,1498.9,1241,1465.9,1493.3
2026-06-21 23:24:04.258,1501.3,1240.2,1465.1,1493.3
2026-06-21 23:24:04.247,1500.5,1243.4,1464.2,1494.1
2026-06-21 23:24:04.248,1498.1,1240.2,1459.4,1495.7
2026-06-21 23:24:04.249,1494.9,1240.2,1462.6,1496.5
2026-06-21 23:24:04.250,1494.1,1239.4,1461,1495.7
2026-06-21 23:24:04.251,1496.5,1240.2,1459.4,1497.3
2026-06-21 23:24:04.252,1494.9,1236.2,1457,1497.3
2026-06-21 23:24:04.253,1494.9,1237,,1495.7
2026-06-21 23:24:04.254,1496.5,1236.2,1462.6,1495.7
2026-06-21 23:24:04.255,1497.3,1238.6,1458.6,1494.1
2026-06-21 23:24:04.256,1498.1,1244.2,1455.4,1495.7
2026-06-21 23:24:04.257,1500.5,1240.2,1457.8,1494.1
2026-06-21 23:24:04.258,1498.9,1240.2,1458.6,1495.7
2026-06-21 23:24:04.259,1500.5,1240.2,1457,1495.7
2026-06-21 23:24:04.260,1499.7,1240.2,1455.4,1495.7
2026-06-21 23:24:04.261,1498.9,1240.2,1458.6,1497.3
2026-06-21 23:24:04.262,1500.5,1238.6,1458.6,1498.9
2026-06-21 23:24:04.263,1499.7,1241.8,1457.8,1490.8
2026-06-21 23:24:04.264,1500.5,1239.4,1460.2,1493.3
2026-06-21 23:24:04.265,1500.5,1237,1459.4,1494.1
2026-06-21 23:24:04.266,1498.9,1239.4,1461,1497.3
2026-06-21 23:24:04.267,1500.5,1238.6,1459.4,1494.1
2026-06-21 23:24:04.268,1501.3,1239.4,1459.4,1494.1
2026-06-21 23:24:04.269,1501.3,1236.2,1461,1492.5
2026-06-21 23:24:04.270,1500.5,1240.2,1464.2,1495.7
2026-06-21 23:24:04.271,1500.5,1240.2,1464.2,1494.1
2026-06-21 23:24:04.272,1501.3,1241.8,1464.2,1495.7
2026-06-21 23:24:04.273,1500.5,1240.2,1465.1,1497.3
2026-06-21 23:24:04.274,1499.7,1239.4,1461.8,1494.1
2026-06-21 23:24:04.275,1499.7,1240.2,1458.6,1496.5
2026-06-21 23:24:04.276,1501.3,1241,1456.2,1495.7
2026-06-21 23:24:04.277,1500.5,1240.2,1457.8,1492.5
2026-06-21 23:24:04.278,1500.5,1245.9,1459.4,1492.5
2026-06-21 23:24:04.279,1501.3,1240.2,1458.6,1493.3
2026-06-21 23:24:04.280,1498.9,1240.2,1457.8,1493.3
2026-06-21 23:24:04.281,1500.5,1239.4,1455.4,1495.7
2026-06-21 23:24:04.282,1501.3,1242.6,1458.6,1492.5
2026-06-21 23:24:04.283,1498.9,1240.2,1458.6,1494.1
2026-06-21 23:24:04.284,1498.9,1240.2,1455.4,1494.9
2026-06-21 23:24:04.285,1501.3,1239.4,1459.4,1495.7
2026-06-21 23:24:04.286,1500.5,1237.8,1460.2,1492.5
2026-06-21 23:24:04.287,1500.5,1240.2,1461,1494.1
2026-06-21 23:24:04.288,1501.3,1236.2,1465.1,1495.7
2026-06-21 23:24:04.289,1499.7,1233,1462.6,1495.7
2026-06-21 23:24:04.290,1501.3,1240.2,1463.4,1496.5
2026-06-21 23:24:04.291,1499.7,1238.6,1461,1495.7
2026-06-21 23:24:04.292,1500.5,1240.2,1461.8,1496.5
2026-06-21 23:24:04.293,1498.9,1240.2,1458.6,1494.9
2026-06-21 23:24:04.294,1500.5,1240.2,1459.4,1493.3
2026-06-21 23:24:04.295,1498.9,1240.2,1461.8,1494.1
2026-06-21 23:24:04.296,1502.1,1240.2,1462.6,1494.1
2026-06-21 23:24:04.309,1498.1,1240.2,1464.2,1496.5
2026-06-21 23:24:04.310,1494.1,1239.4,1464.2,1496.5
2026-06-21 23:24:04.311,1496.5,1238.6,1462.6,1497.3
2026-06-21 23:24:04.312,1492.5,1240.2,1462.6,1498.9
2026-06-21 23:24:04.313,1494.9,1240.2,1461.8,1497.3
2026-06-21 23:24:04.314,1494.1,1239.4,1458.6,1494.9
2026-06-21 23:24:04.315,1497.3,1238.6,1455.4,1495.7
2026-06-21 23:24:04.316,1498.1,1240.2,1461,1496.5
2026-06-21 23:24:04.317,1499.7,1237.8,1461.8,1497.3
2026-06-21 23:24:04.318,1498.9,1239.4,1457.8,1495.7
2026-06-21 23:24:04.319,1498.9,1240.2,1461.8,1495.7
2026-06-21 23:24:04.320,1496.5,1246.7,1461.8,1495.7
2026-06-21 23:24:04.321,1498.1,1243.4,1464.2,1493.3
2026-06-21 23:24:04.322,1499.7,1247.5,1458.6,1495.7
2026-06-21 23:24:04.323,1498.9,1244.2,1460.2,1497.3
2026-06-21 23:24:04.324,1500.5,1241.8,1460.2,1492.5
2026-06-21 23:24:04.325,1498.9,1241,1457.8,1493.3
2026-06-21 23:24:04.326,1499.7,1240.2,1458.6,1492.5
2026-06-21 23:24:04.327,1501.3,1243.4,1460.2,1494.1
2026-06-21 23:24:04.328,1502.1,1244.2,1459.4,1494.1
2026-06-21 23:24:04.329,1499.7,1241,1456.2,1492.5
2026-06-21 23:24:04.330,1501.3,1241,1459.4,1492.5
2026-06-21 23:24:04.331,1499.7,1240.2,1458.6,1492.5
2026-06-21 23:24:04.332,1501.3,1240.2,1457,1492.5
2026-06-21 23:24:04.333,1498.9,1240.2,1458.6,1492.5
2026-06-21 23:24:04.334,1494.9,1240.2,1459.4,1492.5
2026-06-21 23:24:04.335,1498.9,1240.2,1459.4,1492.5
2026-06-21 23:24:04.336,1500.5,1240.2,1461.8,1494.1
2026-06-21 23:24:04.337,1499.7,1239.4,1464.2,1494.1
2026-06-21 23:24:04.338,1499.7,1240.2,1462.6,1493.3
2026-06-21 23:24:04.339,1501.3,1240.2,1458.6,1494.1
2026-06-21 23:24:04.340,1500.5,1240.2,1461.8,1494.1
2026-06-21 23:24:04.341,1501.3,1240.2,1456.2,1494.1
2026-06-21 23:24:04.342,1501.3,1240.2,1456.2,1495.7
2026-06-21 23:24:04.343,1501.3,1240.2,1453,1493.3
2026-06-21 23:24:04.344,1500.5,1241,1459.4,1494.9
2026-06-21 23:24:04.345,1498.9,1239.4,1464.2,1494.1
2026-06-21 23:24:04.346,1498.9,1240.2,1461,1494.1
2026-06-21 23:24:04.347,1499.7,1241,1467.5,1494.1
2026-06-21 23:24:04.348,1499.7,1240.2,1464.2,1494.1
2026-06-21 23:24:04.349,1500.5,1241.8,1461,1494.1
2026-06-21 23:24:04.350,1501.3,1240.2,1462.6,1494.1
2026-06-21 23:24:04.351,1501.3,1237,1464.2,1495.7
2026-06-21 23:24:04.352,1499.7,1239.4,1461,1494.1
2026-06-21 23:24:04.353,1499.7,1239.4,1461,1494.1
2026-06-21 23:24:04.354,1498.9,1236.2,1460.2,1494.1
2026-06-21 23:24:04.355,1499.7,1238.6,1453,1494.1
2026-06-21 23:24:04.356,1499.7,1239.4,1455.4,1492.5
2026-06-21 23:24:04.357,1499.7,1238.6,1455.4,1496.5
2026-06-21 23:24:04.358,1498.9,1240.2,1459.4,1494.1
2026-06-21 23:24:04.347,1498.9,1244.2,1459.4,1495.7
2026-06-21 23:24:04.348,1497.3,1236.2,1461.8,1493.3
2026-06-21 23:24:04.349,1493.3,1240.2,1460.2,1495.7
2026-06-21 23:24:04.350,1494.9,1238.6,1459.4,1494.1
2026-06-21 23:24:04.351,1494.9,1240.2,1459.4,1495.7
2026-06-21 23:24:04.352,1495.7,1240.2,1463.4,1492.5
2026-06-21 23:24:04.353,1498.9,1240.2,1465.1,1494.1
2026-06-21 23:24:04.354,1497.3,1241.8,1464.2,1494.1
2026-06-21 23:24:04.355,1500.5,1241,1459.4,1494.1
2026-06-21 23:24:04.356,1499.7,1241,1453.8,1494.1
2026-06-21 23:24:04.357,1501.3,1240.2,1448.1,1492.5
2026-06-21 23:24:04.358,1500.5,1240.2,1455.4,1493.3
2026-06-21 23:24:04.359,1498.9,1240.2,1459.4,1494.1
2026-06-21 23:24:04.360,1498.9,1240.2,1461.8,1494.1
2026-06-21 23:24:04.361,1500.5,1240.2,1459.4,1494.9
2026-06-21 23:24:04.362,1501.3,1240.2,1460.2,1492.5
2026-06-21 23:24:04.363,1499.7,1240.2,1453,1494.1
2026-06-21 23:24:04.364,1501.3,1240.2,1457.8,1493.3
2026-06-21 23:24:04.365,1501.3,1238.6,1460.2,1492.5
2026-06-21 23:24:04.366,1499.7,1240.2,1463.4,1492.5
2026-06-21 23:24:04.367,1500.5,1240.2,1460.2,1494.1
2026-06-21 23:24:04.368,1498.9,1240.2,1460.2,1493.3
2026-06-21 23:24:04.369,1500.5,1244.2,1458.6,1492.5
2026-06-21 23:24:04.370,1501.3,1240.2,1461,1491.6
2026-06-21 23:24:04.371,1499.7,1241.8,1459.4,1492.5
2026-06-21 23:24:04.372,1501.3,1240.2,1460.2,1493.3
2026-06-21 23:24:04.373,1501.3,1240.2,1460.2,1493.3
2026-06-21 23:24:04.374,1501.3,1240.2,1461,1492.5
2026-06-21 23:24:04.375,1498.9,1240.2,1462.6,1493.3
2026-06-21 23:24:04.376,1499.7,1238.6,1461,1492.5
2026-06-21 23:24:04.377,1501.3,1240.2,1457,1492.5
2026-06-21 23:24:04.378,1499.7,1239.4,1457,1493.3
2026-06-21 23:24:04.379,1499.7,1240.2,1454.6,1492.5
2026-06-21 23:24:04.380,1500.5,1240.2,1456.2,1494.1
2026-06-21 23:24:04.381,1501.3,1244.2,1458.6,1494.1
2026-06-21 23:24:04.382,1498.1,1241,1459.4,1496.5
2026-06-21 23:24:04.383,1501.3,1240.2,1464.2,1494.1
2026-06-21 23:24:04.384,1500.5,1240.2,1465.1,1492.5
2026-06-21 23:24:04.385,1500.5,1240.2,1463.4,1494.1
2026-06-21 23:24:04.386,1500.5,1239.4,1457,1493.3
2026-06-21 23:24:04.387,1498.9,1240.2,1459.4,1494.1
2026-06-21 23:24:04.388,1499.7,1240.2,1456.2,1493.3
2026-06-21 23:24:04.389,1501.3,1238.6,1461,1496.5
2026-06-21 23:24:04.390,1499.7,1233.8,1462.6,1493.3
2026-06-21 23:24:04.391,1498.9,1236.2,1458.6,1494.9
2026-06-21 23:24:04.392,1501.3,1237,1457.8,1494.9
2026-06-21 23:24:04.393,1499.7,1236.2,1459.4,1492.5
2026-06-21 23:24:04.394,1500.5,1240.2,1465.1,1493.3
2026-06-21 23:24:04.395,1501.3,1239.4,1465.9,1494.1
2026-06-21 23:24:04.396,1501.3,1237.8,1466.7,1493.3
2026-06-21 23:24:04.409,1497.3,1236.2,1467.5,1495.7
2026-06-21 23:24:04.410,1494.9,1243.4,1455.4,1494.9
2026-06-21 23:24:04.411,1494.1,1241.8,1455.4,1494.1
2026-06-21 23:24:04.412,1498.1,1240.2,1461.8,1495.7
2026-06-21 23:24:04.413,1494.1,1240.2,1464.2,1494.1
2026-06-21 23:24:04.414,1498.1,1244.2,1465.1,1496.5
2026-06-21 23:24:04.415,1494.9,1244.2,1464.2,1493.3
2026-06-21 23:24:04.416,1495.7,1240.2,1457.8,1492.5
2026-06-21 23:24:04.417,1498.1,1241,1455.4,1494.1
2026-06-21 23:24:04.418,1496.5,1240.2,1453.8,1495.7
2026-06-21 23:24:04.419,1498.9,1238.6,1453.8,1494.1
2026-06-21 23:24:04.420,1496.5,1238.6,1454.6,1492.5
2026-06-21 23:24:04.421,1500.5,1240.2,1457,1494.9
2026-06-21 23:24:04.422,1497.3,1243.4,1458.6,1494.1
2026-06-21 23:24:04.423,1494.9,1241,1458.6,1494.1
2026-06-21 23:24:04.424,1498.9,1240.2,1458.6,1492.5
2026-06-21 23:24:04.425,1500.5,1244.2,1459.4,1492.5
2026-06-21 23:24:04.426,1499.7,1241,1463.4,1490.8
2026-06-21 23:24:04.427,1498.9,1241.8,1461.8,1491.6
2026-06-21 23:24:04.428,1501.3,1241,1457,1491.6
2026-06-21 23:24:04.429,1498.9,1241.8,1455.4,1492.5
2026-06-21 23:24:04.430,1501.3,1240.2,1457,1493.3
2026-06-21 23:24:04.431,1497.3,1240.2,1459.4,1492.5
2026-06-21 23:24:04.432,1498.9,1240.2,1461.8,1494.1
2026-06-21 23:24:04.433,1496.5,1240.2,1461,1492.5
2026-06-21 23:24:04.434,1498.1,1240.2,1459.4,1492.5
2026-06-21 23:24:04.435,1498.1,1239.4,1453.8,1494.1
2026-06-21 23:24:04.436,1501.3,1240.2,1459.4,1494.1
2026-06-21 23:24:04.437,1501.3,1244.2,1459.4,1492.5
2026-06-21 23:24:04.438,1498.1,1240.2,1457.8,1492.5
2026-06-21 23:24:04.439,1498.9,1241.8,1459.4,1494.1
2026-06-21 23:24:04.440,1498.9,1240.2,1461,1492.5
2026-06-21 23:24:04.441,1498.9,1243.4,1462.6,1493.3
2026-06-21 23:24:04.442,1500.5,1240.2,1461,1494.1
2026-06-21 23:24:04.443,1498.9,1240.2,1461.8,1492.5
2026-06-21 23:24:04.444,1498.9,1240.2,1463.4,1495.7
2026-06-21 23:24:04.445,1499.7,1241,1465.1,1494.1
2026-06-21 23:24:04.446,1502.1,1240.2,1461,1493.3
2026-06-21 23:24:04.447,1498.1,1240.2,1459.4,1495.7
2026-06-21 23:24:04.448,1498.9,1239.4,1460.2,1494.1
2026-06-21 23:24:04.449,1498.1,1240.2,1457,1493.3
2026-06-21 23:24:04.450,1498.9,1238.6,1459.4,1494.1
2026-06-21 23:24:04.451,1497.3,1240.2,1460.2,1495.7
2026-06-21 23:24:04.452,1498.9,1239.4,1461.8,1495.7
2026-06-21 23:24:04.453,1498.9,1238.6,1461.8,1493.3
2026-06-21 23:24:04.454,1499.7,1240.2,1464.2,1493.3
2026-06-21 23:24:04.455,1498.9,1240.2,1464.2,1494.1
2026-06-21 23:24:04.456,1501.3,1239.4,1463.4,1494.1
2026-06-21 23:24:04.457,1501.3,1239.4,1463.4,1494.1
2026-06-21 23:24:04.458,1499.7,1240.2,1461.8,1493.3
2026-06-21 23:24:04.476,1498.1,1239.4,1458.6,1494.1
2026-06-21 23:24:04.477,1494.9,1240.2,1464.2,1493.3
2026-06-21 23:24:04.478,1492.5,1243.4,1454.6,1494.1
2026-06-21 23:24:04.479,1494.1,1240.2,1453.8,1494.1
2026-06-21 23:24:04.480,1494.9,1241.8,1453.8,1493.3
2026-06-21 23:24:04.481,1494.9,1240.2,1456.2,1493.3
2026-06-21 23:24:04.482,1494.9,1240.2,1457.8,1493.3
2026-06-21 23:24:04.483,1494.9,1240.2,1453.8,1492.5
2026-06-21 23:24:04.484,1495.7,1241,1457.8,1494.1
2026-06-21 23:24:04.485,1497.3,1240.2,1458.6,1493.3
2026-06-21 23:24:04.486,1496.5,1240.2,1458.6,1494.9
2026-06-21 23:24:04.487,1499.7,1241,1456.2,1494.1
2026-06-21 23:24:04.488,1498.9,1240.2,1457,1494.9
2026-06-21 23:24:04.489,1496.5,1241.8,1458.6,1493.3
2026-06-21 23:24:04.490,1498.9,1240.2,1458.6,1492.5
2026-06-21 23:24:04.491,1498.1,1240.2,1461,1492.5
2026-06-21 23:24:04.492,1501.3,1240.2,1459.4,1492.5
2026-06-21 23:24:04.493,1498.9,1240.2,1460.2,1492.5
2026-06-21 23:24:04.494,1501.3,1241.8,1463.4,1492.5
2026-06-21 23:24:04.495,1499.7,1241,1465.1,1493.3
2026-06-21 23:24:04.496,1498.9,1240.2,1465.1,1492.5
2026-06-21 23:24:04.497,1501.3,1240.2,1465.1,1493.3
2026-06-21 23:24:04.498,1498.9,1240.2,1464.2,1494.9
2026-06-21 23:24:04.499,1498.1,1241.8,1463.4,1494.9
2026-06-21 23:24:04.500,1501.3,1243.4,1459.4,1492.5
2026-06-21 23:24:04.501,1498.9,1241,1457.8,1492.5
2026-06-21 23:24:04.502,1498.1,1241,1458.6,1493.3
2026-06-21 23:24:04.503,1501.3,1240.2,1459.4,1491.6
2026-06-21 23:24:04.504,1499.7,1239.4,1457.8,1494.1
2026-06-21 23:24:04.505,1499.7,1240.2,1463.4,1492.5
2026-06-21 23:24:04.506,1500.5,1240.2,1463.4,1493.3
2026-06-21 23:24:04.507,1499.7,1240.2,1452.2,1494.1
2026-06-21 23:24:04.508,1498.9,1242.6,1460.2,1493.3
2026-06-21 23:24:04.509,1500.5,1240.2,1460.2,1493.3
2026-06-21 23:24:04.510,1501.3,1240.2,1461,1492.5
2026-06-21 23:24:04.511,1501.3,1241.8,1461.8,1494.1
2026-06-21 23:24:04.512,1500.5,1239.4,1463.4,1494.1
2026-06-21 23:24:04.513,1501.3,1240.2,1460.2,1494.1
2026-06-21 23:24:04.514,1500.5,1240.2,1463.4,1492.5
2026-06-21 23:24:04.515,1499.7,1240.2,1461,1493.3
2026-06-21 23:24:04.516,1498.9,1240.2,1462.6,1492.5
2026-06-21 23:24:04.517,1499.7,1240.2,1460.2,1493.3
2026-06-21 23:24:04.518,1498.9,1240.2,1462.6,1493.3
2026-06-21 23:24:04.519,1501.3,1240.2,1463.4,1493.3
2026-06-21 23:24:04.520,1499.7,1237.8,1463.4,1495.7
2026-06-21 23:24:04.521,1500.5,1239.4,1460.2,1494.1
2026-06-21 23:24:04.522,1501.3,1239.4,1461.8,1494.1
2026-06-21 23:24:04.523,1501.3,1237.8,1463.4,1494.1
2026-06-21 23:24:04.524,1499.7,1240.2,1461,1492.5
2026-06-21 23:24:04.525,1498.9,1240.2,1465.1,1495.7
2026-06-21 23:24:04.512,1494.9,1239.4,1465.1,1498.9
2026-06-21 23:24:04.513,1494.1,1240.2,1457,1496.5
2026-06-21 23:24:04.514,1497.3,1240.2,1456.2,1497.3
2026-06-21 23:24:04.515,1497.3,1241.8,1464.2,1493.3
2026-06-21 23:24:04.516,1496.5,1240.2,1464.2,1493.3
2026-06-21 23:24:04.517,1494.9,1239.4,1464.2,1494.1
2026-06-21 23:24:04.518,1494.9,1241,1467.5,1497.3
2026-06-21 23:24:04.519,1494.9,1240.2,1465.1,1493.3
2026-06-21 23:24:04.520,1497.3,1240.2,1460.2,1495.7
2026-06-21 23:24:04.521,1494.9,1241.8,1452.2,1498.9
2026-06-21 23:24:04.522,1500.5,1241,1455.4,1496.5
2026-06-21 23:24:04.523,1498.1,1240.2,1456.2,1494.9
2026-06-21 23:24:04.524,1498.9,1241.8,1459.4,1494.1
2026-06-21 23:24:04.525,1498.9,1240.2,1460.2,1494.1
2026-06-21 23:24:04.526,1501.3,1241.8,1456.2,1494.1
2026-06-21 23:24:04.527,1496.5,1241.8,1459.4,1491.6
2026-06-21 23:24:04.528,1498.9,1241.8,1460.2,1492.5
2026-06-21 23:24:04.529,1501.3,1241,1457,1492.5
2026-06-21 23:24:04.530,1497.3,1240.2,1461.8,1494.1
2026-06-21 23:24:04.531,1497.3,1243.4,1461,1490.8
2026-06-21 23:24:04.532,1498.1,1241.8,1461.8,1494.1
2026-06-21 23:24:04.533,1499.7,1240.2,1458.6,1494.1
2026-06-21 23:24:04.534,1498.1,1240.2,1460.2,1492.5
2026-06-21 23:24:04.535,1497.3,1240.2,1459.4,1492.5
2026-06-21 23:24:04.536,1500.5,1239.4,1461,1492.5
2026-06-21 23:24:04.537,1499.7,1240.2,1463.4,1493.3
2026-06-21 23:24:04.538,1498.1,1241.8,1459.4,1493.3
2026-06-21 23:24:04.539,1498.1,1241,1463.4,1494.1
2026-06-21 23:24:04.540,1499.7,1240.2,1460.2,1494.1
2026-06-21 23:24:04.541,1501.3,1241,1461.8,1492.5
2026-06-21 23:24:04.542,1499.7,1240.2,1461,1494.1
2026-06-21 23:24:04.543,1498.9,1240.2,1459.4,1494.1
2026-06-21 23:24:04.544,1498.1,1242.6,1461,1494.1
2026-06-21 23:24:04.545,1500.5,1240.2,1464.2,1495.7
2026-06-21 23:24:04.546,1496.5,1240.2,1462.6,1494.1
2026-06-21 23:24:04.547,1498.9,1240.2,1458.6,1495.7
2026-06-21 23:24:04.548,1498.9,1240.2,1457,1494.1
2026-06-21 23:24:04.549,1499.7,1240.2,1457.8,1497.3
2026-06-21 23:24:04.550,1501.3,1240.2,1462.6,1494.1
2026-06-21 23:24:04.551,1497.3,1241.8,1465.1,1498.9
2026-06-21 23:24:04.552,1500.5,1239.4,1465.1,1494.1
2026-06-21 23:24:04.553,1501.3,1240.2,1465.1,1496.5
2026-06-21 23:24:04.554,1495.7,1239.4,1464.2,1496.5
2026-06-21 23:24:04.555,1498.9,1238.6,1455.4,1495.7
2026-06-21 23:24:04.556,1498.9,1238.6,1457.8,1493.3
2026-06-21 23:24:04.557,1498.1,1240.2,1461,1496.5
2026-06-21 23:24:04.558,1498.9,1240.2,1461,1493.3
2026-06-21 23:24:04.559,1498.9,1238.6,1462.6,1493.3
2026-06-21 23:24:04.560,1499.7,1240.2,1462.6,1496.5
2026-06-21 23:24:04.561,1499.7,1240.2,1463.4,1497.3
2026-06-21 23:24:04.555,1500.5,1239.4,1464.2,1494.1
2026-06-21 23:24:04.556,1498.9,1240.2,1461.8,1494.1
2026-06-21 23:24:04.557,1492.5,1240.2,1463.4,1494.9
2026-06-21 23:24:04.558,1493.3,1239.4,1461.8,1495.7
2026-06-21 23:24:04.559,1497.3,1240.2,1461.8,1496.5
2026-06-21 23:24:04.560,1492.5,1240.2,1463.4,1497.3
2026-06-21 23:24:04.561,1498.9,1240.2,1462.6,1494.1
2026-06-21 23:24:04.562,1497.3,1239.4,1450.5,1495.7
2026-06-21 23:24:04.563,1494.1,1241,1454.6,1497.3
2026-06-21 23:24:04.564,1498.1,1240.2,1456.2,1498.9
2026-06-21 23:24:04.565,1498.1,1239.4,1458.6,1495.7
2026-06-21 23:24:04.566,1498.9,1240.2,1459.4,1494.1
2026-06-21 23:24:04.567,1497.3,1240.2,1458.6,1494.1
2026-06-21 23:24:04.568,1497.3,1239.4,1457,1494.1
2026-06-21 23:24:04.569,1498.9,1240.2,1458.6,1494.1
2026-06-21 23:24:04.570,1498.9,1240.2,1460.2,1494.9
2026-06-21 23:24:04.571,1499.7,1240.2,1457.8,1493.3
2026-06-21 23:24:04.572,1497.3,1241,1461,1493.3
2026-06-21 23:24:04.573,1498.9,1240.2,1459.4,1492.5
2026-06-21 23:24:04.574,1499.7,1240.2,1459.4,1493.3
2026-06-21 23:24:04.575,1497.3,1240.2,1459.4,1493.3
2026-06-21 23:24:04.576,1498.1,1238.6,1458.6,1494.1
2026-06-21 23:24:04.577,1498.9,1240.2,1463.4,1494.1
2026-06-21 23:24:04.578,1498.1,1239.4,1459.4,1495.7
2026-06-21 23:24:04.579,1498.9,1240.2,1462.6,1493.3
2026-06-21 23:24:04.580,1498.1,1241,1458.6,1492.5
2026-06-21 23:24:04.581,1498.9,1240.2,1458.6,1492.5
2026-06-21 23:24:04.582,1501.3,1240.2,1461.8,1493.3
2026-06-21 23:24:04.583,1499.7,1239.4,1461,1493.3
2026-06-21 23:24:04.584,1494.9,1240.2,1463.4,1492.5
2026-06-21 23:24:04.585,1500.5,1240.2,1464.2,1494.1
2026-06-21 23:24:04.586,1498.9,1240.2,1461,1494.1
2026-06-21 23:24:04.587,1498.9,1240.2,1459.4,1492.5
2026-06-21 23:24:04.588,1498.9,1240.2,1461.8,1492.5
2026-06-21 23:24:04.589,1498.1,1241,1457,1494.1
2026-06-21 23:24:04.590,1498.9,1241,1460.2,1497.3
2026-06-21 23:24:04.591,1499.7,1240.2,1464.2,1494.1
2026-06-21 23:24:04.592,1501.3,1240.2,1465.1,1494.1
2026-06-21 23:24:04.593,1499.7,1239.4,1465.1,1493.3
2026-06-21 23:24:04.594,1500.5,1240.2,1465.1,1494.1
2026-06-21 23:24:04.595,1499.7,1239.4,1461.8,1494.1
2026-06-21 23:24:04.596,1499.7,1244.2,1463.4,1494.1
2026-06-21 23:24:04.597,1498.1,1240.2,1454.6,1496.5
2026-06-21 23:24:04.598,1501.3,1237.8,1457.8,1494.1
2026-06-21 23:24:04.599,1498.9,1238.6,1461.8,1494.1
2026-06-21 23:24:04.600,1498.9,1240.2,1461,1494.1
2026-06-21 23:24:04.601,1499.7,1240.2,1460.2,1494.1
2026-06-21 23:24:04.602,1500.5,1236.2,1462.6,1494.9
2026-06-21 23:24:04.603,1497.3,1240.2,1460.2,1494.1
2026-06-21 23:24:04.604,1498.9,1240.2,1462.6,1494.1
2026-06-21 23:24:04.611,1498.9,1239.4,1459.4,1494.1
2026-06-21 23:24:04.612,1498.9,1240.2,1461,1494.1
2026-06-21 23:24:04.613,1491.6,1240.2,1461,1495.7
2026-06-21 23:24:04.614,1492.5,1240.2,1461.8,1497.3
2026-06-21 23:24:04.615,1492.5,1240.2,1458.6,1497.3
2026-06-21 23:24:04.616,1492.5,1239.4,1461,1496.5
2026-06-21 23:24:04.617,1496.5,1240.2,1460.2,1496.5
2026-06-21 23:24:04.618,1494.9,1240.2,1458.6,1493.3
2026-06-21 23:24:04.619,1494.9,1240.2,1459.4,1494.1
2026-06-21 23:24:04.620,1498.9,1240.2,1459.4,1494.9
2026-06-21 23:24:04.621,1498.9,1239.4,1457.8,1495.7
2026-06-21 23:24:04.622,1498.9,1240.2,1458.6,1495.7
2026-06-21 23:24:04.623,1498.1,1239.4,1459.4,1494.1
2026-06-21 23:24:04.624,1497.3,1240.2,1461.8,1494.1
2026-06-21 23:24:04.625,1494.9,1239.4,1461.8,1494.1
2026-06-21 23:24:04.626,1498.1,1240.2,1460.2,1495.7
2026-06-21 23:24:04.627,1500.5,1240.2,1461.8,1492.5
2026-06-21 23:24:04.628,1499.7,1240.2,1454.6,1492.5
2026-06-21 23:24:04.629,1498.9,1240.2,1454.6,1494.1
2026-06-21 23:24:04.630,1499.7,1240.2,1453.8,1493.3
2026-06-21 23:24:04.631,1498.1,1237.8,1464.2,1494.1
2026-06-21 23:24:04.632,1501.3,1240.2,1461.8,1494.1
2026-06-21 23:24:04.633,1500.5,1241,1462.6,1494.1
2026-06-21 23:24:04.634,1501.3,1240.2,1465.1,1494.1
2026-06-21 23:24:04.635,1499.7,1239.4,1463.4,1494.1
2026-06-21 23:24:04.636,1500.5,1240.2,1461.8,1493.3
2026-06-21 23:24:04.637,1500.5,1240.2,1464.2,1493.3
2026-06-21 23:24:04.638,1499.7,1239.4,1463.4,1493.3
2026-06-21 23:24:04.639,1498.1,1240.2,1464.2,1494.1
2026-06-21 23:24:04.640,1501.3,1241.8,1465.1,1492.5
2026-06-21 23:24:04.641,1500.5,1240.2,1465.9,1496.5
2026-06-21 23:24:04.642,1498.1,1241,1464.2,1494.1
2026-06-21 23:24:04.643,1500.5,1240.2,1463.4,1497.3
2026-06-21 23:24:04.644,1499.7,1240.2,1455.4,1494.1
2026-06-21 23:24:04.645,1501.3,1240.2,1454.6,1494.1
2026-06-21 23:24:04.646,1498.1,1239.4,1456.2,1494.1
2026-06-21 23:24:04.647,1499.7,1240.2,1455.4,1493.3
2026-06-21 23:24:04.648,1498.9,1240.2,1460.2,1497.3
2026-06-21 23:24:04.649,1497.3,1240.2,1459.4,1494.1
2026-06-21 23:24:04.650,1500.5,1240.2,1457.8,1494.1
2026-06-21 23:24:04.651,1498.9,1240.2,1461.8,1494.1
2026-06-21 23:24:04.652,1501.3,1240.2,1461.8,1495.7
2026-06-21 23:24:04.653,1501.3,1238.6,1455.4,1494.1
2026-06-21 23:24:04.654,1500.5,1238.6,1458.6,1497.3
2026-06-21 23:24:04.655,1501.3,1238.6,1461,1494.1
2026-06-21 23:24:04.656,1498.9,1237.8,1461,1496.5
2026-06-21 23:24:04.657,1498.1,1238.6,1464.2,1494.9
2026-06-21 23:24:04.658,1499.7,1237.8,1464.2,1497.3
2026-06-21 23:24:04.659,1499.7,1240.2,1465.1,1496.5
2026-06-21 23:24:04.660,1498.1,1238.6,1461.8,1493.3
2026-06-21 23:24:04.649,1498.9,1240.2,1464.2,1494.1
2026-06-21 23:24:04.650,1498.1,1239.4,1464.2,1495.7
2026-06-21 23:24:04.651,1492.5,1240.2,1465.1,1495.7
2026-06-21 23:24:04.652,1496.5,1240.2,1462.6,1494.1
2026-06-21 23:24:04.653,1494.9,1240.2,1464.2,1495.7
2026-06-21 23:24:04.654,1494.1,1240.2,1463.4,1495.7
2026-06-21 23:24:04.655,1496.5,1238.6,1459.4,1494.1
2026-06-21 23:24:04.656,1494.9,1238.6,1457.8,1496.5
2026-06-21 23:24:04.657,1494.1,1240.2,1463.4,1494.9
2026-06-21 23:24:04.658,1494.9,1240.2,1455.4,1497.3
2026-06-21 23:24:04.659,1496.5,1240.2,1459.4,1495.7
2026-06-21 23:24:04.660,1498.9,1240.2,1459.4,1497.3
2026-06-21 23:24:04.661,1500.5,1240.2,1457.8,1496.5
2026-06-21 23:24:04.662,1498.9,1240.2,1459.4,1495.7
2026-06-21 23:24:04.663,1498.9,1240.2,1459.4,1492.5
2026-06-21 23:24:04.664,1497.3,1240.2,1459.4,1497.3
2026-06-21 23:24:04.665,1498.1,1240.2,1461,1494.9
2026-06-21 23:24:04.666,1501.3,1240.2,1457.8,1492.5
2026-06-21 23:24:04.667,1499.7,1241,1455.4,1492.5
2026-06-21 23:24:04.668,1500.5,1240.2,1456.2,1492.5
2026-06-21 23:24:04.669,1501.3,1240.2,1457.8,1491.6
2026-06-21 23:24:04.670,1499.7,1240.2,1461,1492.5
2026-06-21 23:24:04.671,1500.5,1240.2,1465.1,1494.1
2026-06-21 23:24:04.672,1498.1,1241,1463.4,1492.5
2026-06-21 23:24:04.673,1500.5,1241.8,1464.2,1494.1
2026-06-21 23:24:04.674,1498.9,1240.2,1461.8,1492.5
2026-06-21 23:24:04.675,1498.1,1240.2,1461.8,1494.1
2026-06-21 23:24:04.676,1498.9,1240.2,1459.4,1492.5
2026-06-21 23:24:04.677,1498.9,1241,1458.6,1493.3
2026-06-21 23:24:04.678,1497.3,1240.2,1461,1493.3
2026-06-21 23:24:04.679,1498.9,1240.2,1461,1492.5
2026-06-21 23:24:04.680,1497.3,1241.8,1460.2,1494.1
2026-06-21 23:24:04.681,1496.5,1240.2,1460.2,1495.7
2026-06-21 23:24:04.682,1498.9,1240.2,1461,1492.5
2026-06-21 23:24:04.683,1498.1,1241.8,1461,1495.7
2026-06-21 23:24:04.684,1500.5,1240.2,1459.4,1494.1
2026-06-21 23:24:04.685,1498.1,1240.2,1461.8,1494.1
2026-06-21 23:24:04.686,1498.1,1240.2,1458.6,1495.7
2026-06-21 23:24:04.687,1499.7,1240.2,1459.4,1494.1
2026-06-21 23:24:04.688,1500.5,1240.2,1463.4,1495.7
2026-06-21 23:24:04.689,1500.5,1240.2,1461.8,1494.1
2026-06-21 23:24:04.690,1498.9,1237.8,1462.6,1493.3
2026-06-21 23:24:04.691,1498.9,1236.2,1459.4,1494.1
2026-06-21 23:24:04.692,1499.7,1240.2,1461,1494.1
2026-06-21 23:24:04.693,1501.3,1240.2,1463.4,1493.3
2026-06-21 23:24:04.694,1498.9,1238.6,1463.4,1495.7
2026-06-21 23:24:04.695,1501.3,1240.2,1461,1494.1
2026-06-21 23:24:04.696,1501.3,1240.2,1463.4,1494.1
2026-06-21 23:24:04.697,1501.3,1240.2,1461.8,1495.7
2026-06-21 23:24:04.698,1494.9,1240.2,1461.8,1494.1
2026-06-21 23:24:04.710,1498.9,1241,1464.2,1493.3
2026-06-21 23:24:04.711,1494.9,1240.2,1460.2,1494.9
2026-06-21 23:24:04.712,1491.6,1240.2,1463.4,1495.7
2026-06-21 23:24:04.713,1494.1,1241.8,1465.1,1497.3
2026-06-21 23:24:04.714,1494.1,1240.2,1465.1,1496.5
2026-06-21 23:24:04.715,1496.5,1240.2,1464.2,1493.3
2026-06-21 23:24:04.716,1494.9,1240.2,1461,1498.9
2026-06-21 23:24:04.717,1498.1,1241.8,1460.2,1494.1
2026-06-21 23:24:04.718,1496.5,1240.2,1455.4,1494.1
2026-06-21 23:24:04.719,1500.5,1240.2,1456.2,1493.3
2026-06-21 23:24:04.720,1498.9,1240.2,1455.4,1495.7
2026-06-21 23:24:04.721,1498.1,1240.2,1458.6,1497.3
2026-06-21 23:24:04.722,1501.3,1240.2,1459.4,1493.3
2026-06-21 23:24:04.723,1498.9,1240.2,1458.6,1495.7
2026-06-21 23:24:04.724,1496.5,1241,1455.4,1498.9
2026-06-21 23:24:04.725,1498.1,1240.2,1457.8,1496.5
2026-06-21 23:24:04.726,1498.9,1241,1461.8,1491.6
2026-06-21 23:24:04.727,1499.7,1239.4,1461.8,1492.5
2026-06-21 23:24:04.728,1499.7,1240.2,1459.4,1493.3
2026-06-21 23:24:04.729,1498.9,1240.2,1461.8,1492.5
2026-06-21 23:24:04.730,1500.5,1240.2,1464.2,1491.6
2026-06-21 23:24:04.731,1499.7,1240.2,1461,1493.3
2026-06-21 23:24:04.732,1498.9,1240.2,1464.2,1492.5
2026-06-21 23:24:04.733,1499.7,1242.6,1459.4,1492.5
2026-06-21 23:24:04.734,1496.5,1240.2,1458.6,1494.1
2026-06-21 23:24:04.735,1498.1,1240.2,1457.8,1492.5
2026-06-21 23:24:04.736,1498.9,1240.2,1457.8,1492.5
2026-06-21 23:24:04.737,1498.1,1240.2,1455.4,1494.1
2026-06-21 23:24:04.738,1497.3,1241,1461,1494.1
2026-06-21 23:24:04.739,1500.5,1239.4,1461,1494.9
2026-06-21 23:24:04.740,1501.3,1240.2,1461,1492.5
2026-06-21 23:24:04.741,1498.9,1240.2,1460.2,1493.3
2026-06-21 23:24:04.742,1501.3,1240.2,1461.8,1493.3
2026-06-21 23:24:04.743,1499.7,1239.4,1465.1,1494.1
2026-06-21 23:24:04.744,1498.1,1241.8,1465.9,1493.3
2026-06-21 23:24:04.745,1499.7,1241.8,1465.1,1497.3
2026-06-21 23:24:04.746,1498.9,1241.8,1459.4,1492.5
2026-06-21 23:24:04.747,1499.7,1240.2,1455.4,1493.3
2026-06-21 23:24:04.748,1497.3,1240.2,1456.2,1495.7
2026-06-21 23:24:04.749,1498.9,1241.8,1458.6,1492.5
2026-06-21 23:24:04.750,1498.9,1240.2,1464.2,1497.3
2026-06-21 23:24:04.751,1501.3,1240.2,1465.1,1493.3
2026-06-21 23:24:04.752,1498.9,1238.6,1461.8,1495.7
2026-06-21 23:24:04.753,1500.5,1237.8,1456.2,1494.9
2026-06-21 23:24:04.754,1502.1,1237.8,1458.6,1496.5
2026-06-21 23:24:04.755,1501.3,1240.2,1461,1496.5
2026-06-21 23:24:04.756,1501.3,1240.2,1465.1,1494.1
2026-06-21 23:24:04.757,1498.9,1240.2,1465.1,1496.5
2026-06-21 23:24:04.758,1499.7,1240.2,1464.2,1494.1
2026-06-21 23:24:04.759,1500.5,1237.8,1461,1495.7
2026-06-21 23:24:04.748,1496.5,1240.2,1465.1,1493.3
2026-06-21 23:24:04.749,1493.3,1240.2,1461.8,1497.3
2026-06-21 23:24:04.750,1491.6,1240.2,1459.4,1493.3
2026-06-21 23:24:04.751,1491.6,1240.2,1457,1494.1
2026-06-21 23:24:04.752,1495.7,1237,1455.4,1495.7
2026-06-21 23:24:04.753,1494.9,1240.2,1456.2,1495.7
2026-06-21 23:24:04.754,1495.7,1241,1461.8,1495.7
2026-06-21 23:24:04.755,1494.9,1239.4,1461.8,1497.3
2026-06-21 23:24:04.756,1497.3,1240.2,1456.2,1494.1
2026-06-21 23:24:04.757,1498.9,1240.2,1465.1,1495.7
2026-06-21 23:24:04.758,1498.9,1240.2,1465.1,1494.9
2026-06-21 23:24:04.759,1494.9,1240.2,1461,1496.5
2026-06-21 23:24:04.760,1501.3,1240.2,1455.4,1494.1
2026-06-21 23:24:04.761,1498.9,1240.2,1455.4,1494.1
2026-06-21 23:24:04.762,1498.9,1241,1453,1494.1
2026-06-21 23:24:04.763,1498.1,1240.2,1452.2,1492.5
2026-06-21 23:24:04.764,1498.9,1240.2,1461.8,1492.5
2026-06-21 23:24:04.765,1501.3,1240.2,1460.2,1493.3
2026-06-21 23:24:04.766,1497.3,1240.2,1455.4,1492.5
2026-06-21 23:24:04.767,1500.5,1240.2,1461.8,1493.3
2026-06-21 23:24:04.768,1501.3,1240.2,1461,1492.5
2026-06-21 23:24:04.769,1500.5,1240.2,1457.8,1492.5
2026-06-21 23:24:04.770,1499.7,1240.2,1461,1494.1
2026-06-21 23:24:04.771,1501.3,1240.2,1461,1494.1
2026-06-21 23:24:04.772,1498.9,1240.2,1462.6,1493.3
2026-06-21 23:24:04.773,1498.9,1240.2,1461,1497.3
2026-06-21 23:24:04.774,1498.1,1241,1462.6,1493.3
2026-06-21 23:24:04.775,1498.9,1240.2,1459.4,1494.1
2026-06-21 23:24:04.776,1501.3,1240.2,1459.4,1494.1
2026-06-21 23:24:04.777,1498.1,1240.2,1457.8,1492.5
2026-06-21 23:24:04.778,1501.3,1241.8,1460.2,1494.1
2026-06-21 23:24:04.779,1498.9,1239.4,1461,1492.5
2026-06-21 23:24:04.780,1499.7,1241,1463.4,1493.3
2026-06-21 23:24:04.781,1501.3,1240.2,1465.1,1492.5
2026-06-21 23:24:04.782,1498.1,1241.8,1464.2,1494.1
2026-06-21 23:24:04.783,1499.7,1241.8,1464.2,1493.3
2026-06-21 23:24:04.784,1499.7,1240.2,1462.6,1494.1
2026-06-21 23:24:04.785,1501.3,1240.2,1460.2,1494.1
2026-06-21 23:24:04.786,1501.3,1240.2,1458.6,1494.1
2026-06-21 23:24:04.787,1498.9,1240.2,1456.2,1496.5
2026-06-21 23:24:04.788,1500.5,1240.2,1460.2,1498.9
2026-06-21 23:24:04.789,1501.3,1239.4,1457.8,1493.3
2026-06-21 23:24:04.790,1498.1,1237.8,1461.8,1494.1
2026-06-21 23:24:04.791,1498.9,1240.2,1461.8,1498.9
2026-06-21 23:24:04.792,1498.1,1240.2,1463.4,1494.1
2026-06-21 23:24:04.793,1498.9,1240.2,1464.2,1498.9
2026-06-21 23:24:04.794,1501.3,1238.6,1464.2,1494.1
2026-06-21 23:24:04.795,1501.3,1240.2,1461,1493.3
2026-06-21 23:24:04.796,1501.3,1240.2,1461.8,1495.7
2026-06-21 23:24:04.797,1501.3,1239.4,1460.2,1494.9
2026-06-21 23:24:04.810,1497.3,1238.6,1461.8,1494.1
2026-06-21 23:24:04.811,1498.1,1239.4,1462.6,1495.7
2026-06-21 23:24:04.812,1494.9,1240.2,1460.2,1494.1
2026-06-21 23:24:04.813,1493.3,1240.2,1462.6,1498.9
2026-06-21 23:24:04.814,1494.9,1240.2,1461,1494.9
2026-06-21 23:24:04.815,1494.1,1240.2,1461.8,1494.1
2026-06-21 23:24:04.816,1494.1,1240.2,1461.8,1494.1
2026-06-21 23:24:04.817,1494.9,1240.2,1461,1497.3
2026-06-21 23:24:04.818,1498.1,1240.2,1457,1494.9
2026-06-21 23:24:04.819,1498.9,1241,1456.2,1495.7
2026-06-21 23:24:04.820,1499.7,1241,1458.6,1495.7
2026-06-21 23:24:04.821,1494.9,1240.2,1459.4,1494.1
2026-06-21 23:24:04.822,1497.3,1240.2,1461,1494.1
2026-06-21 23:24:04.823,1498.9,1241.8,1461.8,1494.1
2026-06-21 23:24:04.824,1500.5,1241.8,1461.8,1494.1
2026-06-21 23:24:04.825,1498.9,1240.2,1461,1492.5
2026-06-21 23:24:04.826,1500.5,1240.2,1460.2,1493.3
2026-06-21 23:24:04.827,1498.9,1241,1460.2,1492.5
2026-06-21 23:24:04.828,1500.5,1240.2,1461.8,1492.5
2026-06-21 23:24:04.829,1499.7,1238.6,1463.4,1493.3
2026-06-21 23:24:04.830,1498.9,1240.2,1464.2,1492.5
2026-06-21 23:24:04.831,1500.5,1239.4,1462.6,1493.3
2026-06-21 23:24:04.832,1501.3,1240.2,1461,1492.5
2026-06-21 23:24:04.833,1497.3,1240.2,1456.2,1493.3
2026-06-21 23:24:04.834,1501.3,1240.2,1457.8,1494.1
2026-06-21 23:24:04.835,1498.9,1240.2,1459.4,1492.5
2026-06-21 23:24:04.836,1501.3,1240.2,1460.2,1495.7
2026-06-21 23:24:04.837,1502.1,1240.2,1463.4,1493.3
2026-06-21 23:24:04.838,1499.7,1240.2,1461.8,1494.1
2026-06-21 23:24:04.839,1501.3,1240.2,1456.2,1494.1
2026-06-21 23:24:04.840,1498.1,1240.2,1459.4,1494.1
2026-06-21 23:24:04.841,1501.3,1240.2,1460.2,1496.5
2026-06-21 23:24:04.842,1498.9,1240.2,1459.4,1493.3
2026-06-21 23:24:04.843,1498.9,1240.2,1461,1492.5
2026-06-21 23:24:04.844,1499.7,1241,1460.2,1494.1
2026-06-21 23:24:04.845,1498.9,1241.8,1461.8,1492.5
2026-06-21 23:24:04.846,1500.5,1240.2,1463.4,1494.1
2026-06-21 23:24:04.847,1499.7,1240.2,1460.2,1494.1
2026-06-21 23:24:04.848,1498.9,1240.2,1461,1495.7
2026-06-21 23:24:04.849,1501.3,1240.2,1461.8,1495.7
2026-06-21 23:24:04.850,1498.9,1239.4,1463.4,1493.3
2026-06-21 23:24:04.851,1499.7,1244.2,1459.4,1494.1
2026-06-21 23:24:04.852,1498.9,1238.6,1459.4,1492.5
2026-06-21 23:24:04.853,1501.3,1240.2,1461.8,1494.1
2026-06-21 23:24:04.854,1500.5,1240.2,1460.2,1494.1
2026-06-21 23:24:04.855,1499.7,1239.4,1461,1497.3
2026-06-21 23:24:04.856,1500.5,1240.2,1462.6,1497.3
2026-06-21 23:24:04.857,1498.9,1240.2,1461.8,1494.1
2026-06-21 23:24:04.858,1501.3,1240.2,1460.2,1495.7
2026-06-21 23:24:04.859,1500.5,1240.2,1460.2,1496.5
2026-06-21 23:24:04.847,1501.3,1239.4,1459.4,1495.7
2026-06-21 23:24:04.848,1494.9,1240.2,1457.8,1497.3
2026-06-21 23:24:04.849,1494.9,1240.2,1465.9,1494.9
2026-06-21 23:24:04.850,1494.9,1240.2,1464.2,1496.5
2026-06-21 23:24:04.851,1494.9,1242.6,1464.2,1494.1
2026-06-21 23:24:04.852,1492.5,1240.2,1463.4,1494.1
2026-06-21 23:24:04.853,1492.5,1241,1461.8,1495.7
2026-06-21 23:24:04.854,1497.3,1239.4,1459.4,1497.3
2026-06-21 23:24:04.855,1498.1,1239.4,1461.8,1495.7
2026-06-21 23:24:04.856,1497.3,1240.2,1461.8,1495.7
2026-06-21 23:24:04.857,1494.9,1240.2,1460.2,1494.1
2026-06-21 23:24:04.858,1497.3,1241,1457.8,1494.1
2026-06-21 23:24:04.859,1498.9,1240.2,1456.2,1493.3
2026-06-21 23:24:04.860,1497.3,1241,1455.4,1498.1
2026-06-21 23:24:04.861,1497.3,1241,1455.4,1495.7
2026-06-21 23:24:04.862,1498.9,1240.2,1453.8,1494.9
2026-06-21 23:24:04.863,1500.5,1240.2,1461.8,1492.5
2026-06-21 23:24:04.864,1499.7,1240.2,1465.1,1492.5
2026-06-21 23:24:04.865,1498.9,1240.2,1462.6,1493.3
2026-06-21 23:24:04.866,1501.3,1240.2,1458.6,1492.5
2026-06-21 23:24:04.867,1498.9,1241.8,1457,1492.5
2026-06-21 23:24:04.868,1498.1,1240.2,1457.8,1492.5
2026-06-21 23:24:04.869,1498.1,1240.2,1458.6,1492.5
2026-06-21 23:24:04.870,1501.3,1240.2,1459.4,1493.3
2026-06-21 23:24:04.871,1501.3,1240.2,1460.2,1494.1
2026-06-21 23:24:04.872,1497.3,1240.2,1456.2,1494.1
2026-06-21 23:24:04.873,1498.9,1240.2,1459.4,1492.5
2026-06-21 23:24:04.874,1498.1,1238.6,1460.2,1492.5
2026-06-21 23:24:04.875,1501.3,1239.4,1463.4,1493.3
2026-06-21 23:24:04.876,1498.9,1240.2,1464.2,1492.5
2026-06-21 23:24:04.877,1501.3,1240.2,1465.1,1494.1
2026-06-21 23:24:04.878,1498.9,1240.2,1465.1,1492.5
2026-06-21 23:24:04.879,1498.9,1240.2,1462.6,1494.1
2026-06-21 23:24:04.880,1501.3,1240.2,1463.4,1495.7
2026-06-21 23:24:04.881,1501.3,1240.2,1457.8,1493.3
2026-06-21 23:24:04.882,1501.3,1240.2,1459.4,1492.5
2026-06-21 23:24:04.883,1501.3,1242.6,1456.2,1492.5
2026-06-21 23:24:04.884,1499.7,1241.8,1457.8,1492.5
2026-06-21 23:24:04.885,1500.5,1240.2,1460.2,1493.3
2026-06-21 23:24:04.886,1501.3,1240.2,1461,1493.3
2026-06-21 23:24:04.887,1498.9,1240.2,1461.8,1495.7
2026-06-21 23:24:04.888,1498.9,1240.2,1464.2,1494.1
2026-06-21 23:24:04.889,1498.9,1240.2,1461.8,1493.3
2026-06-21 23:24:04.890,1501.3,1237.8,1461.8,1494.1
2026-06-21 23:24:04.891,1498.9,1237.8,1463.4,1494.1
2026-06-21 23:24:04.892,1499.7,1240.2,1466.7,1496.5
2026-06-21 23:24:04.893,1501.3,1240.2,1465.9,1495.7
2026-06-21 23:24:04.894,1500.5,1240.2,1464.2,1498.9
2026-06-21 23:24:04.895,1498.9,1238.6,1464.2,1497.3
2026-06-21 23:24:04.896,1501.3,1239.4,1460.2,1497.3
2026-06-21 23:24:04.909,1498.1,1239.4,1454.6,1495.7
2026-06-21 23:24:04.910,1490.8,1240.2,1459.4,1495.7
2026-06-21 23:24:04.911,1494.9,1240.2,1461,1493.3
2026-06-21 23:24:04.912,1494.1,1241.8,1461,1493.3
2026-06-21 23:24:04.913,1494.9,1238.6,1461,1497.3
2026-06-21 23:24:04.914,1496.5,1240.2,1460.2,1497.3
2026-06-21 23:24:04.915,1496.5,1240.2,1463.4,1494.1
2026-06-21 23:24:04.916,1498.1,1240.2,1461,1496.5
2026-06-21 23:24:04.917,1500.5,1240.2,1458.6,1495.7
2026-06-21 23:24:04.918,1498.1,1240.2,1455.4,1498.9
2026-06-21 23:24:04.919,1494.9,1241.8,1456.2,1497.3
2026-06-21 23:24:04.920,1498.9,1239.4,1456.2,1494.1
2026-06-21 23:24:04.921,1497.3,1240.2,1459.4,1495.7
2026-06-21 23:24:04.922,1498.1,1241.8,1461,1495.7
2026-06-21 23:24:04.923,1497.3,1241,1456.2,1495.7
2026-06-21 23:24:04.924,1498.1,1240.2,1458.6,1491.6
2026-06-21 23:24:04.925,1498.9,1240.2,1464.2,1493.3
2026-06-21 23:24:04.926,1498.9,1240.2,1467.5,1495.7
2026-06-21 23:24:04.927,1494.9,1240.2,1467.5,1493.3
2026-06-21 23:24:04.928,1497.3,1240.2,1464.2,1493.3
2026-06-21 23:24:04.929,1500.5,1240.2,1455.4,1492.5
2026-06-21 23:24:04.930,1501.3,1239.4,1457.8,1492.5
2026-06-21 23:24:04.931,1498.9,1240.2,1457.8,1492.5
2026-06-21 23:24:04.932,1498.9,1240.2,1464.2,1493.3
2026-06-21 23:24:04.933,1498.9,1240.2,1464.2,1494.1
2026-06-21 23:24:04.934,1500.5,1239.4,1463.4,1494.1
2026-06-21 23:24:04.935,1498.9,1241,1456.2,1494.9
2026-06-21 23:24:04.936,1499.7,1240.2,1456.2,1497.3
2026-06-21 23:24:04.937,1501.3,1240.2,1458.6,1493.3
2026-06-21 23:24:04.938,1498.1,1241,1457,1493.3
2026-06-21 23:24:04.939,1501.3,1237,1459.4,1494.1
2026-06-21 23:24:04.940,1498.9,1240.2,1461,1494.1
2026-06-21 23:24:04.941,1498.9,1239.4,1461.8,1494.1
2026-06-21 23:24:04.942,1498.9,1238.6,1461.8,1494.1
2026-06-21 23:24:04.943,1499.7,1240.2,1461.8,1494.9
2026-06-21 23:24:04.944,1500.5,1240.2,1461.8,1494.1
2026-06-21 23:24:04.945,1501.3,1241.8,1459.4,1495.7
2026-06-21 23:24:04.946,1498.9,1240.2,1461,1496.5
2026-06-21 23:24:04.947,1499.7,1240.2,1459.4,1494.1
2026-06-21 23:24:04.948,1500.5,1240.2,1461,1492.5
2026-06-21 23:24:04.949,1500.5,1240.2,1463.4,1494.1
2026-06-21 23:24:04.950,1497.3,1238.6,1465.1,1498.9
2026-06-21 23:24:04.951,1501.3,1233.8,1461,1494.1
2026-06-21 23:24:04.952,1498.9,1238.6,1461,1495.7
2026-06-21 23:24:04.953,1498.9,1236.2,1462.6,1495.7
2026-06-21 23:24:04.954,1500.5,1240.2,1459.4,1493.3
2026-06-21 23:24:04.955,1499.7,1240.2,1462.6,1494.1
2026-06-21 23:24:04.956,1498.9,1240.2,1463.4,1494.9
2026-06-21 23:24:04.957,1498.9,1240.2,1459.4,1493.3
2026-06-21 23:24:04.958,1500.5,1239.4,1461,1493.3
2026-06-21 23:24:04.950,1496.5,1240.2,1461,1494.1
2026-06-21 23:24:04.951,1494.1,1240.2,1459.4,1494.9
2026-06-21 23:24:04.952,1494.9,1240.2,1464.2,1497.3
2026-06-21 23:24:04.953,1494.9,1240.2,1464.2,1495.7
2026-06-21 23:24:04.954,1494.9,1240.2,1461,1497.3
2026-06-21 23:24:04.955,1494.1,1240.2,1463.4,1494.1
2026-06-21 23:24:04.956,1494.9,1240.2,1461.8,1494.1
2026-06-21 23:24:04.957,1496.5,1239.4,1463.4,1494.1
2026-06-21 23:24:04.958,1496.5,1240.2,1459.4,1493.3
2026-06-21 23:24:04.959,1498.9,1240.2,1455.4,1495.7
2026-06-21 23:24:04.960,1500.5,1241.8,1456.2,1494.1
2026-06-21 23:24:04.961,1497.3,1240.2,1456.2,1497.3
2026-06-21 23:24:04.962,1499.7,1241,1457.8,1493.3
2026-06-21 23:24:04.963,1498.9,1240.2,1461,1496.5
2026-06-21 23:24:04.964,1498.9,1241,1460.2,1495.7
2026-06-21 23:24:04.965,1498.9,1240.2,1459.4,1491.6
2026-06-21 23:24:04.966,1498.1,1240.2,1459.4,1492.5
2026-06-21 23:24:04.967,1499.7,1240.2,1461.8,1492.5
2026-06-21 23:24:04.968,1498.9,1240.2,1462.6,1494.1
2026-06-21 23:24:04.969,1501.3,1240.2,1464.2,1492.5
2026-06-21 23:24:04.970,1499.7,1240.2,1463.4,1493.3
2026-06-21 23:24:04.971,1498.1,1237.8,1459.4,1492.5
2026-06-21 23:24:04.972,1498.9,1239.4,1463.4,1494.1
2026-06-21 23:24:04.973,1500.5,1240.2,1465.1,1494.1
2026-06-21 23:24:04.974,1498.1,1240.2,1464.2,1494.9
2026-06-21 23:24:04.975,1500.5,1237.8,1456.2,1494.9
2026-06-21 23:24:04.976,1497.3,1240.2,1453,1493.3
2026-06-21 23:24:04.977,1501.3,1240.2,1456.2,1493.3
2026-06-21 23:24:04.978,1498.9,1244.2,1459.4,1492.5
2026-06-21 23:24:04.979,1497.3,1241.8,1456.2,1492.5
2026-06-21 23:24:04.980,1501.3,1241.8,1460.2,1492.5
2026-06-21 23:24:04.981,1501.3,1240.2,1461.8,1493.3
2026-06-21 23:24:04.982,1500.5,1240.2,1459.4,1494.1
2026-06-21 23:24:04.983,1498.9,1237.8,1461.8,1493.3
2026-06-21 23:24:04.984,1498.9,1240.2,1458.6,1493.3
2026-06-21 23:24:04.985,1498.9,1240.2,1459.4,1494.1
2026-06-21 23:24:04.986,1501.3,1244.2,1465.1,1493.3
2026-06-21 23:24:04.987,1501.3,1241,1464.2,1494.1
2026-06-21 23:24:04.988,1499.7,1241.8,1459.4,1494.1
2026-06-21 23:24:04.989,1501.3,1239.4,1456.2,1493.3
2026-06-21 23:24:04.990,1499.7,1240.2,1457,1494.1
2026-06-21 23:24:04.991,1499.7,1240.2,1458.6,1494.1
2026-06-21 23:24:04.992,1501.3,1237,1463.4,1492.5
2026-06-21 23:24:04.993,1499.7,1239.4,1459.4,1494.1
2026-06-21 23:24:04.994,1498.9,1239.4,1464.2,1494.1
2026-06-21 23:24:04.995,1500.5,1240.2,1461,1494.1
2026-06-21 23:24:04.996,1498.9,1240.2,1463.4,1494.9
2026-06-21 23:24:04.997,1501.3,1237.8,1462.6,1494.9
2026-06-21 23:24:04.998,1501.3,1239.4,1460.2,1498.9
2026-06-21 23:24:04.999,1501.3,1239.4,1461.8,1495.7
2026-06-21 23:24:05.009,1501.3,1240.2,1461.8,1495.7
2026-06-21 23:24:05.010,1498.9,1240.2,1459.4,1496.5
2026-06-21 23:24:05.011,1492.5,1240.2,1461.8,1495.7
2026-06-21 23:24:05.012,1494.1,1240.2,1460.2,1495.7
2026-06-21 23:24:05.013,1494.1,1240.2,1457.8,1494.1
2026-06-21 23:24:05.014,1497.3,1238.6,1463.4,1495.7
2026-06-21 23:24:05.015,1494.9,1240.2,1458.6,1495.7
2026-06-21 23:24:05.016,1494.9,1240.2,1463.4,1494.9
2026-06-21 23:24:05.017,1495.7,1241,1458.6,1494.1
2026-06-21 23:24:05.018,1498.9,1240.2,1455.4,1493.3
2026-06-21 23:24:05.019,1494.9,1240.2,1453.8,1493.3
2026-06-21 23:24:05.020,1498.9,1240.2,1456.2,1494.1
2026-06-21 23:24:05.021,1497.3,1240.2,1459.4,1498.9
2026-06-21 23:24:05.022,1499.7,1240.2,1465.1,1495.7
2026-06-21 23:24:05.023,1498.1,1239.4,1465.1,1497.3
2026-06-21 23:24:05.024,1498.9,1239.4,1459.4,1496.5
2026-06-21 23:24:05.025,1496.5,1238.6,1463.4,1494.1
2026-06-21 23:24:05.026,1499.7,1241.8,1455.4,1492.5
2026-06-21 23:24:05.027,1499.7,1241,1457.8,1492.5
2026-06-21 23:24:05.028,1498.9,1240.2,1457.8,1492.5
2026-06-21 23:24:05.029,1501.3,1240.2,1459.4,1492.5
2026-06-21 23:24:05.030,1499.7,1240.2,1455.4,1492.5
2026-06-21 23:24:05.031,1501.3,1239.4,1458.6,1492.5
2026-06-21 23:24:05.032,1499.7,1240.2,1458.6,1493.3
2026-06-21 23:24:05.033,1498.1,1241,1462.6,1491.6
2026-06-21 23:24:05.034,1498.9,1240.2,1461.8,1494.1
2026-06-21 23:24:05.035,1501.3,1241.8,1459.4,1493.3
2026-06-21 23:24:05.036,1500.5,1240.2,1461.8,1492.5
2026-06-21 23:24:05.037,1499.7,1240.2,1461,1493.3
2026-06-21 23:24:05.038,1501.3,1240.2,1461.8,1494.1
2026-06-21 23:24:05.039,1501.3,1240.2,1463.4,1492.5
2026-06-21 23:24:05.040,1501.3,1243.4,1459.4,1494.1
2026-06-21 23:24:05.041,1499.7,1240.2,1460.2,1492.5
2026-06-21 23:24:05.042,1499.7,1239.4,1461,1494.1
2026-06-21 23:24:05.043,1498.1,1239.4,1463.4,1492.5
2026-06-21 23:24:05.044,1498.9,1241,1463.4,1494.1
2026-06-21 23:24:05.045,1498.9,1240.2,1463.4,1493.3
2026-06-21 23:24:05.046,1499.7,1240.2,1463.4,1494.1
2026-06-21 23:24:05.047,1494.9,1239.4,1459.4,1495.7
2026-06-21 23:24:05.048,1498.1,1239.4,1459.4,1494.9
2026-06-21 23:24:05.049,1500.5,1238.6,1459.4,1492.5
2026-06-21 23:24:05.050,1500.5,1242.6,1461.8,1494.1
2026-06-21 23:24:05.051,1500.5,1239.4,1465.1,1493.3
2026-06-21 23:24:05.052,1500.5,1236.2,1464.2,1495.7
2026-06-21 23:24:05.053,1499.7,1237.8,1463.4,1494.1
2026-06-21 23:24:05.054,1499.7,1235.4,1455.4,1493.3
2026-06-21 23:24:05.055,1499.7,1236.2,1459.4,1496.5
2026-06-21 23:24:05.056,1500.5,1243.4,1458.6,1494.1
2026-06-21 23:24:05.057,1500.5,1241.8,1462.6,1494.1
2026-06-21 23:24:05.058,1501.3,1239.4,1460.2,1494.1
2026-06-21 23:24:05.048,1498.9,1240.2,1458.6,1494.1
2026-06-21 23:24:05.049,1497.3,1240.2,1465.1,1495.7
2026-06-21 23:24:05.050,1494.1,1240.2,1463.4,1495.7
2026-06-21 23:24:05.051,1496.5,1240.2,1462.6,1496.5
2026-06-21 23:24:05.052,1498.1,1240.2,1463.4,1494.9
2026-06-21 23:24:05.053,1494.1,1240.2,1464.2,1494.1
2026-06-21 23:24:05.054,1498.1,1240.2,1461.8,1494.9
2026-06-21 23:24:05.055,1494.1,1240.2,1456.2,1494.1
2026-06-21 23:24:05.056,1498.9,1240.2,1460.2,1493.3
2026-06-21 23:24:05.057,1498.1,1240.2,1456.2,1494.1
2026-06-21 23:24:05.058,1498.9,1240.2,1456.2,1495.7
2026-06-21 23:24:05.059,1497.3,1240.2,1456.2,1497.3
2026-06-21 23:24:05.060,1498.1,1240.2,1457.8,1497.3
2026-06-21 23:24:05.061,1498.1,1240.2,1457.8,1494.9
2026-06-21 23:24:05.062,1501.3,1240.2,1457.8,1495.7
2026-06-21 23:24:05.063,1498.1,1240.2,1460.2,1492.5
2026-06-21 23:24:05.064,1497.3,1239.4,1462.6,1492.5
2026-06-21 23:24:05.065,1500.5,1240.2,1464.2,1494.1
2026-06-21 23:24:05.066,1500.5,1240.2,1464.2,1492.5
2026-06-21 23:24:05.067,1500.5,1240.2,1464.2,1493.3
2026-06-21 23:24:05.068,1501.3,1240.2,1461,1493.3
2026-06-21 23:24:05.069,1500.5,1240.2,1453,1492.5
2026-06-21 23:24:05.070,1499.7,1240.2,1453.8,1492.5
2026-06-21 23:24:05.071,1498.9,1240.2,1461,1493.3
2026-06-21 23:24:05.072,1499.7,1240.2,1459.4,1492.5
2026-06-21 23:24:05.073,1498.1,1240.2,1461.8,1493.3
2026-06-21 23:24:05.074,1501.3,1240.2,1458.6,1493.3
2026-06-21 23:24:05.075,1499.7,1240.2,1460.2,1494.1
2026-06-21 23:24:05.076,1500.5,1240.2,1458.6,1492.5
2026-06-21 23:24:05.077,1499.7,1241.8,1455.4,1494.1
2026-06-21 23:24:05.078,1500.5,1239.4,1458.6,1494.1
2026-06-21 23:24:05.079,1499.7,1240.2,1463.4,1493.3
2026-06-21 23:24:05.080,1498.9,1240.2,1465.1,1494.1
2026-06-21 23:24:05.081,1498.9,1241,1463.4,1494.9
2026-06-21 23:24:05.082,1498.9,1240.2,1465.1,1495.7
2026-06-21 23:24:05.083,1498.9,1240.2,1461.8,1494.1
2026-06-21 23:24:05.084,1498.9,1240.2,1460.2,1494.1
2026-06-21 23:24:05.085,1497.3,1240.2,1463.4,1494.1
2026-06-21 23:24:05.086,1498.9,1240.2,1461.8,1495.7
2026-06-21 23:24:05.087,1498.1,1240.2,1461,1494.1
2026-06-21 23:24:05.088,1499.7,1240.2,1461.8,1494.1
2026-06-21 23:24:05.089,1497.3,1237,1461.8,1494.1
2026-06-21 23:24:05.090,1498.9,1239.4,1464.2,1495.7
2026-06-21 23:24:05.091,1498.9,1239.4,1465.1,1494.1
2026-06-21 23:24:05.092,1501.3,1240.2,1458.6,1493.3
2026-06-21 23:24:05.093,1500.5,1237.8,1460.2,1494.1
2026-06-21 23:24:05.094,1498.9,1240.2,1465.1,1493.3
2026-06-21 23:24:05.095,1501.3,1238.6,1462.6,1493.3
2026-06-21 23:24:05.096,1500.5,1236.2,1461.8,1494.1
2026-06-21 23:24:05.097,1498.1,1240.2,1461.8,1495.7
2026-06-21 23:24:05.109,1497.3,1241,1460.2,1494.1
2026-06-21 23:24:05.110,1493.3,1239.4,1464.2,1496.5
2026-06-21 23:24:05.111,1496.5,1240.2,1465.1,1495.7
2026-06-21 23:24:05.112,1498.1,1240.2,1465.1,1497.3
2026-06-21 23:24:05.113,1491.6,1240.2,1461.8,1494.9
2026-06-21 23:24:05.114,1496.5,1240.2,1459.4,1494.1
2026-06-21 23:24:05.115,1494.9,1240.2,1453,1495.7
2026-06-21 23:24:05.116,1494.9,1237.8,1450.5,1495.7
2026-06-21 23:24:05.117,1498.1,1239.4,1455.4,1495.7
2026-06-21 23:24:05.118,1494.9,1240.2,1455.4,1493.3
2026-06-21 23:24:05.119,1498.1,1240.2,1457.8,1492.5
2026-06-21 23:24:05.120,1498.9,1239.4,1457.8,1492.5
2026-06-21 23:24:05.121,1498.9,1241.8,1461,1495.7
2026-06-21 23:24:05.122,1498.9,1244.2,1461,1494.1
2026-06-21 23:24:05.123,1501.3,1241,1459.4,1494.1
2026-06-21 23:24:05.124,1498.1,1242.6,1458.6,1496.5
2026-06-21 23:24:05.125,1494.9,1240.2,1457.8,1494.1
2026-06-21 23:24:05.126,1501.3,1240.2,1456.2,1493.3
2026-06-21 23:24:05.127,1500.5,1238.6,1463.4,1491.6
2026-06-21 23:24:05.128,1500.5,1240.2,1457.8,1492.5
2026-06-21 23:24:05.129,1502.1,1239.4,1457,1492.5
2026-06-21 23:24:05.130,1498.9,1240.2,1459.4,1492.5
2026-06-21 23:24:05.131,1498.9,1241.8,1458.6,1492.5
2026-06-21 23:24:05.132,1498.9,1240.2,1461,1494.1
2026-06-21 23:24:05.133,1498.1,1240.2,1456.2,1493.3
2026-06-21 23:24:05.134,1498.1,1240.2,1458.6,1494.1
2026-06-21 23:24:05.135,1498.1,1240.2,1463.4,1494.1
2026-06-21 23:24:05.136,1501.3,1240.2,1464.2,1494.1
2026-06-21 23:24:05.137,1499.7,1240.2,1460.2,1492.5
2026-06-21 23:24:05.138,1498.9,1241,1461.8,1494.1
2026-06-21 23:24:05.139,1498.9,1241,1463.4,1493.3
2026-06-21 23:24:05.140,1498.1,1241,1458.6,1494.1
2026-06-21 23:24:05.141,1501.3,1240.2,1463.4,1493.3
2026-06-21 23:24:05.142,1497.3,1241,1465.1,1494.1
2026-06-21 23:24:05.143,1498.9,1241.8,1464.2,1494.1
2026-06-21 23:24:05.144,1501.3,1240.2,1464.2,1495.7
2026-06-21 23:24:05.145,1500.5,1241,1462.6,1495.7
2026-06-21 23:24:05.146,1498.9,1238.6,1460.2,1494.1
2026-06-21 23:24:05.147,1501.3,1240.2,1459.4,1494.1
2026-06-21 23:24:05.148,1498.9,1240.2,1461.8,1494.1
2026-06-21 23:24:05.149,1500.5,1240.2,1461.8,1493.3
2026-06-21 23:24:05.150,1498.1,1240.2,1461.8,1494.9
2026-06-21 23:24:05.151,1498.9,1240.2,1460.2,1494.1
2026-06-21 23:24:05.152,1500.5,1237,1462.6,1492.5
2026-06-21 23:24:05.153,1499.7,1240.2,1461,1494.1
2026-06-21 23:24:05.154,1498.1,1238.6,1464.2,1493.3
2026-06-21 23:24:05.155,1498.9,1236.2,1459.4,1494.1
2026-06-21 23:24:05.156,1498.1,1238.6,1460.2,1494.1
2026-06-21 23:24:05.157,1498.1,1239.4,1462.6,1492.5
2026-06-21 23:24:05.158,1499.7,1240.2,1459.4,1494.9
2026-06-21 23:24:05.148,1496.5,1238.6,1464.2,1494.9
2026-06-21 23:24:05.149,1494.9,1236.2,1465.1,1492.5
2026-06-21 23:24:05.150,1494.1,1235.4,1464.2,1493.3
2026-06-21 23:24:05.151,1492.5,1236.2,1463.4,1492.5
2026-06-21 23:24:05.152,1494.1,1240.2,1461,1493.3
2026-06-21 23:24:05.153,1494.9,1238.6,1457,1492.5
2026-06-21 23:24:05.154,1494.9,1242.6,1455.4,1492.5
2026-06-21 23:24:05.155,1498.1,1244.2,1457.8,1494.1
2026-06-21 23:24:05.156,1494.1,1244.2,1459.4,1494.1
2026-06-21 23:24:05.157,1497.3,1240.2,1459.4,1494.9
2026-06-21 23:24:05.158,1499.7,1239.4,1462.6,1494.1
2026-06-21 23:24:05.159,1497.3,1240.2,1463.4,1492.5
2026-06-21 23:24:05.160,1498.1,1242.6,1454.6,1494.1
2026-06-21 23:24:05.161,1499.7,1241.8,1456.2,1493.3
2026-06-21 23:24:05.162,1494.9,1241,1464.2,1492.5
2026-06-21 23:24:05.163,1498.1,1241.8,1465.1,1494.1
2026-06-21 23:24:05.164,1498.1,1241.8,1465.1,1492.5
2026-06-21 23:24:05.165,1501.3,1241,1464.2,1491.6
2026-06-21 23:24:05.166,1497.3,1240.2,1459.4,1488.4
2026-06-21 23:24:05.167,1502.1,1240.2,1458.6,1490
2026-06-21 23:24:05.168,1501.3,1242.6,1457.8,1490.8
2026-06-21 23:24:05.169,1499.7,1241,1459.4,1492.5
2026-06-21 23:24:05.170,1501.3,1241.8,1457,1490.8
2026-06-21 23:24:05.171,1498.9,1240.2,1458.6,1490.8
2026-06-21 23:24:05.172,1500.5,1240.2,1461,1490
2026-06-21 23:24:05.173,1500.5,1240.2,1464.2,1491.6
2026-06-21 23:24:05.174,1501.3,1240.2,1465.1,1490.8
2026-06-21 23:24:05.175,1501.3,1240.2,1464.2,1491.6
2026-06-21 23:24:05.176,1498.9,1240.2,1464.2,1490.8
2026-06-21 23:24:05.177,1499.7,1240.2,1461.8,1492.5
2026-06-21 23:24:05.178,1498.9,1239.4,1454.6,1490.8
2026-06-21 23:24:05.179,1498.1,1240.2,1455.4,1492.5
2026-06-21 23:24:05.180,1499.7,1240.2,1458.6,1494.1
2026-06-21 23:24:05.181,1501.3,1239.4,1461,1492.5
2026-06-21 23:24:05.182,1499.7,1240.2,1463.4,1494.1
2026-06-21 23:24:05.183,1501.3,1240.2,1463.4,1492.5
2026-06-21 23:24:05.184,1501.3,1240.2,1461.8,1492.5
2026-06-21 23:24:05.185,1498.9,1241.8,1462.6,1493.3
2026-06-21 23:24:05.186,1496.5,1240.2,1457,1492.5
2026-06-21 23:24:05.187,1501.3,1240.2,1459.4,1493.3
2026-06-21 23:24:05.188,1498.9,1240.2,1459.4,1494.1
2026-06-21 23:24:05.189,1500.5,1238.6,1461.8,1494.1
2026-06-21 23:24:05.190,1501.3,1240.2,1463.4,1493.3
2026-06-21 23:24:05.191,1498.9,1238.6,1458.6,1493.3
2026-06-21 23:24:05.192,1500.5,1240.2,1461.8,1493.3
2026-06-21 23:24:05.193,1501.3,1236.2,1461.8,1495.7
2026-06-21 23:24:05.194,1499.7,1237.8,1462.6,1495.7
2026-06-21 23:24:05.195,1500.5,1239.4,1463.4,1497.3
2026-06-21 23:24:05.196,1498.9,1240.2,1461.8,1494.1
2026-06-21 23:24:05.197,1499.7,1241.8,1464.2,1494.1
2026-06-21 23:24:05.195,,1239.4,1461,1492.5
2026-06-21 23:24:05.209,1501.3,1240.2,1460.2,1492.5
2026-06-21 23:24:05.210,1496.5,1241.8,1461.8,1494.1
2026-06-21 23:24:05.211,1493.3,1239.4,1464.2,1494.1
2026-06-21 23:24:05.212,1494.9,1240.2,1465.1,1492.5
2026-06-21 23:24:05.213,1496.5,1240.2,1464.2,1493.3
2026-06-21 23:24:05.214,1499.7,1240.2,1461.8,1495.7
2026-06-21 23:24:05.215,1494.1,1240.2,1459.4,1494.9
2026-06-21 23:24:05.216,1497.3,1240.2,1461.8,1494.1
2026-06-21 23:24:05.217,1498.1,1240.2,1459.4,1495.7
2026-06-21 23:24:05.218,1498.1,1240.2,1455.4,1495.7
2026-06-21 23:24:05.219,1500.5,1240.2,1454.6,1494.1
2026-06-21 23:24:05.220,1498.9,1240.2,1457,1494.1
2026-06-21 23:24:05.221,1498.9,1241,1461.8,1495.7
2026-06-21 23:24:05.222,1498.1,1240.2,1459.4,1496.5
2026-06-21 23:24:05.223,1498.9,1240.2,1458.6,
2026-06-21 23:24:05.224,1498.9,1240.2,1456.2,1492.5
2026-06-21 23:24:05.225,1500.5,1240.2,1458.6,1491.6
2026-06-21 23:24:05.226,1498.9,1240.2,1465.1,1492.5
2026-06-21 23:24:05.227,1500.5,1240.2,1462.6,1491.6
2026-06-21 23:24:05.228,1498.1,1239.4,1461.8,1492.5
2026-06-21 23:24:05.229,1498.1,1239.4,1459.4,1492.5
2026-06-21 23:24:05.230,1498.1,1241,1457,1494.1
2026-06-21 23:24:05.231,1500.5,1240.2,1462.6,1493.3
2026-06-21 23:24:05.232,1498.1,1242.6,1463.4,1493.3
2026-06-21 23:24:05.233,1498.9,1241.8,1463.4,1494.1
2026-06-21 23:24:05.234,1498.1,1241.8,1460.2,1493.3
2026-06-21 23:24:05.235,1498.9,1241.8,1455.4,1492.5
2026-06-21 23:24:05.236,1499.7,1240.2,1454.6,1490.8
2026-06-21 23:24:05.237,1497.3,1238.6,1457.8,1492.5
2026-06-21 23:24:05.238,1500.5,1239.4,1455.4,1492.5
2026-06-21 23:24:05.239,1498.9,1240.2,1459.4,1492.5
2026-06-21 23:24:05.240,1498.9,1240.2,1459.4,1494.1
2026-06-21 23:24:05.241,1498.1,1237.8,1458.6,1494.9
2026-06-21 23:24:05.242,1498.9,1239.4,1457,1492.5
2026-06-21 23:24:05.243,1498.9,1237,1458.6,1493.3
2026-06-21 23:24:05.244,1494.9,1240.2,1459.4,1494.1
2026-06-21 23:24:05.245,1498.1,1247.5,1461,1493.3
2026-06-21 23:24:05.246,1499.7,1242.6,1461.8,1492.5
2026-06-21 23:24:05.247,1499.7,1240.2,1459.4,1492.5
2026-06-21 23:24:05.248,1498.9,1244.2,1459.4,1493.3
2026-06-21 23:24:05.249,1500.5,1239.4,1462.6,1493.3
2026-06-21 23:24:05.250,1498.1,1240.2,1458.6,1493.3
2026-06-21 23:24:05.251,1498.9,1240.2,1461.8,1493.3
2026-06-21 23:24:05.252,1501.3,1238.6,1459.4,1497.3
2026-06-21 23:24:05.253,1498.9,1237.8,1461,1492.5
2026-06-21 23:24:05.254,1501.3,1236.2,1459.4,1493.3
2026-06-21 23:24:05.255,1501.3,1236.2,1459.4,1494.1
2026-06-21 23:24:05.256,1498.9,1237,1461,1494.1
2026-06-21 23:24:05.257,1501.3,1232.2,1461,1496.5
2026-06-21 23:24:05.258,1498.9,1233,1457.8,1494.1
2026-06-21 23:24:05.249,1494.1,1243.4,1465.1,1494.9
2026-06-21 23:24:05.250,1497.3,1240.2,1464.2,1494.9
2026-06-21 23:24:05.251,1494.9,1243.4,1463.4,1494.1
2026-06-21 23:24:05.252,1495.7,1240.2,1461.8,1495.7
2026-06-21 23:24:05.253,1498.1,1240.2,1463.4,1497.3
2026-06-21 23:24:05.254,1494.9,1240.2,1464.2,1496.5
2026-06-21 23:24:05.255,1494.9,1241.8,1464.2,1497.3
2026-06-21 23:24:05.256,1497.3,1241.8,1457,1494.1
2026-06-21 23:24:05.257,1498.9,1240.2,1455.4,1496.5
2026-06-21 23:24:05.258,1498.1,1241.8,1458.6,1494.1
2026-06-21 23:24:05.259,1498.9,1240.2,1457.8,1498.9
2026-06-21 23:24:05.260,1498.1,1240.2,1457,1494.9
2026-06-21 23:24:05.261,1500.5,1240.2,1459.4,1496.5
2026-06-21 23:24:05.262,1497.3,1240.2,1455.4,1495.7
2026-06-21 23:24:05.263,1498.1,1240.2,1461.8,1496.5
2026-06-21 23:24:05.264,1498.9,1240.2,1461,1494.1
2026-06-21 23:24:05.265,1496.5,1243.4,1464.2,1493.3
2026-06-21 23:24:05.266,1498.9,1241,1461.8,1492.5
2026-06-21 23:24:05.267,1499.7,1240.2,1461.8,1494.1
2026-06-21 23:24:05.268,1499.7,1240.2,1458.6,1493.3
2026-06-21 23:24:05.269,1499.7,1240.2,1456.2,1493.3
2026-06-21 23:24:05.270,1501.3,1239.4,1460.2,1493.3
2026-06-21 23:24:05.271,1500.5,1240.2,1461.8,1494.9
2026-06-21 23:24:05.272,1498.9,1237,1457.8,1492.5
2026-06-21 23:24:05.273,1498.9,1240.2,1456.2,1492.5
2026-06-21 23:24:05.274,1501.3,1241.8,1461,1494.9
2026-06-21 23:24:05.275,1501.3,1240.2,1455.4,1492.5
2026-06-21 23:24:05.276,1500.5,1241,1457,1493.3
2026-06-21 23:24:05.277,1501.3,1240.2,1459.4,1496.5
2026-06-21 23:24:05.278,1501.3,1240.2,1459.4,1493.3
2026-06-21 23:24:05.279,1496.5,1240.2,1461,1494.1
2026-06-21 23:24:05.280,1498.9,1240.2,1460.2,1494.1
2026-06-21 23:24:05.281,1499.7,1240.2,1458.6,1492.5
2026-06-21 23:24:05.282,1498.9,1240.2,1457,1494.1
2026-06-21 23:24:05.283,1500.5,1240.2,1460.2,1494.1
2026-06-21 23:24:05.284,1498.1,1240.2,1456.2,1494.1
2026-06-21 23:24:05.285,1498.1,1241.8,1461.8,1494.9
2026-06-21 23:24:05.286,1498.9,1240.2,1469.1,1492.5
2026-06-21 23:24:05.287,1498.9,1240.2,1467.5,1495.7
2026-06-21 23:24:05.288,1501.3,1240.2,1468.3,1494.1
2026-06-21 23:24:05.289,1501.3,1237.8,1465.1,1494.1
2026-06-21 23:24:05.290,1499.7,1237.8,1456.2,1494.1
2026-06-21 23:24:05.291,1500.5,1238.6,1463.4,1492.5
2026-06-21 23:24:05.292,1499.7,1243.4,1465.1,1494.1
2026-06-21 23:24:05.293,1500.5,1243.4,1465.9,1494.1
2026-06-21 23:24:05.294,1498.9,1240.2,1453.8,1494.9
2026-06-21 23:24:05.295,1499.7,1240.2,1447.3,1494.1
2026-06-21 23:24:05.296,1498.1,1239.4,1452.2,1493.3
2026-06-21 23:24:05.297,1498.1,1240.2,1450.5,1494.1
2026-06-21 23:24:05.298,1499.7,1240.2,1454.6,1494.9
2026-06-21 23:24:05.309,1498.1,1240.2,1458.6,1494.1
2026-06-21 23:24:05.310,1497.3,1240.2,1459.4,1493.3
2026-06-21 23:24:05.311,1494.1,1240.2,1460.2,1493.3
2026-06-21 23:24:05.312,1494.1,1240.2,1463.4,1495.7
2026-06-21 23:24:05.313,1494.1,1240.2,1459.4,1494.1
2026-06-21 23:24:05.314,1494.9,1240.2,1459.4,1494.1
2026-06-21 23:24:05.315,1493.3,1240.2,,1496.5
2026-06-21 23:24:05.316,1494.9,1240.2,1457.8,1494.1
2026-06-21 23:24:05.317,1494.9,1240.2,1457.8,1495.7
2026-06-21 23:24:05.318,1497.3,1240.2,1458.6,1497.3
2026-06-21 23:24:05.319,1498.1,1240.2,1455.4,1495.7
2026-06-21 23:24:05.320,1498.9,1240.2,1455.4,1493.3
2026-06-21 23:24:05.321,1498.1,1240.2,1456.2,1496.5
2026-06-21 23:24:05.322,1498.9,1240.2,1455.4,1495.7
2026-06-21 23:24:05.323,1497.3,1238.6,1461.8,1494.1
2026-06-21 23:24:05.324,1499.7,1240.2,1458.6,1497.3
2026-06-21 23:24:05.325,1498.9,1240.2,1459.4,1492.5
2026-06-21 23:24:05.326,1498.1,1240.2,1455.4,1492.5
2026-06-21 23:24:05.327,1498.1,1240.2,1459.4,1492.5
2026-06-21 23:24:05.328,1498.9,1240.2,1464.2,1492.5
2026-06-21 23:24:05.329,1498.9,1241.8,1461.8,1492.5
2026-06-21 23:24:05.330,1498.1,1240.2,1461.8,1492.5
2026-06-21 23:24:05.331,1498.9,1240.2,1456.2,1492.5
2026-06-21 23:24:05.332,1499.7,1240.2,1458.6,1492.5
2026-06-21 23:24:05.333,1500.5,1240.2,1459.4,1492.5
2026-06-21 23:24:05.334,1500.5,1240.2,1459.4,1494.1
2026-06-21 23:24:05.335,1498.1,1240.2,1459.4,1494.1
2026-06-21 23:24:05.336,1498.9,1239.4,1461.8,1496.5
2026-06-21 23:24:05.337,1497.3,1241.8,1459.4,1492.5
2026-06-21 23:24:05.338,1498.9,1240.2,1458.6,1495.7
2026-06-21 23:24:05.339,1498.9,1240.2,1461.8,1495.7
2026-06-21 23:24:05.340,1499.7,1240.2,1464.2,1494.1
2026-06-21 23:24:05.341,1500.5,1241,1465.1,1494.1
2026-06-21 23:24:05.342,1498.1,1240.2,1461.8,1494.9
2026-06-21 23:24:05.343,1498.9,1240.2,1459.4,1492.5
2026-06-21 23:24:05.344,1498.9,1240.2,1458.6,1494.1
2026-06-21 23:24:05.345,1498.1,1240.2,1455.4,1494.1
2026-06-21 23:24:05.346,1498.9,1240.2,1460.2,1493.3
2026-06-21 23:24:05.347,1500.5,1241,1465.1,1494.1
2026-06-21 23:24:05.348,1501.3,1240.2,1464.2,1492.5
2026-06-21 23:24:05.349,1501.3,1241,1457.8,1494.1
2026-06-21 23:24:05.350,1500.5,1240.2,1457,1496.5
2026-06-21 23:24:05.351,1498.9,1238.6,1458.6,1494.9
2026-06-21 23:24:05.352,1499.7,1240.2,1461.8,1495.7
2026-06-21 23:24:05.353,1498.1,1240.2,1463.4,1493.3
2026-06-21 23:24:05.354,1501.3,1236.2,1460.2,1495.7
2026-06-21 23:24:05.355,1498.1,1239.4,1461.8,1495.7
2026-06-21 23:24:05.356,1500.5,1240.2,1460.2,1494.1
2026-06-21 23:24:05.357,1498.9,1240.2,1457.8,1492.5
2026-06-21 23:24:05.358,1501.3,1240.2,1459.4,1492.5
2026-06-21 23:24:05.348,1500.5,1240.2,1459.4,1495.7
2026-06-21 23:24:05.349,1496.5,1240.2,1459.4,1493.3
2026-06-21 23:24:05.350,1492.5,1240.2,1465.1,1493.3
2026-06-21 23:24:05.351,1493.3,1240.2,1464.2,1496.5
2026-06-21 23:24:05.352,1494.9,1239.4,1464.2,1496.5
2026-06-21 23:24:05.353,1497.3,1240.2,1457.8,1497.3
2026-06-21 23:24:05.354,1498.1,1240.2,1457.8,1494.1
2026-06-21 23:24:05.355,1494.9,1240.2,1461.8,1495.7
2026-06-21 23:24:05.356,1494.9,1240.2,1456.2,1495.7
2026-06-21 23:24:05.357,1495.7,1240.2,1457,1494.1
2026-06-21 23:24:05.358,1494.9,1240.2,1456.2,1496.5
2026-06-21 23:24:05.359,1498.1,1240.2,1456.2,1495.7
2026-06-21 23:24:05.360,1498.1,1241.8,1457,1493.3
2026-06-21 23:24:05.361,1498.1,1241,1455.4,1494.9
2026-06-21 23:24:05.362,1499.7,1240.2,1457,1493.3
2026-06-21 23:24:05.363,1497.3,1240.2,1458.6,1494.1
2026-06-21 23:24:05.364,1498.9,1241,1457,1492.5
2026-06-21 23:24:05.365,1498.9,1241.8,1458.6,1492.5
2026-06-21 23:24:05.366,1498.1,1241.8,1459.4,1492.5
2026-06-21 23:24:05.367,1501.3,1241.8,1459.4,1493.3
2026-06-21 23:24:05.368,1497.3,1240.2,1458.6,1493.3
2026-06-21 23:24:05.369,1501.3,1240.2,1458.6,1492.5
2026-06-21 23:24:05.370,1499.7,1240.2,1459.4,1494.1
2026-06-21 23:24:05.371,1498.9,1240.2,1459.4,1493.3
2026-06-21 23:24:05.372,1499.7,1240.2,1461,1494.9
2026-06-21 23:24:05.373,1498.9,1240.2,1461,1494.1
2026-06-21 23:24:05.374,1498.9,1238.6,1459.4,1494.1
2026-06-21 23:24:05.375,1498.1,1240.2,1453,1493.3
2026-06-21 23:24:05.376,1498.9,1240.2,1454.6,1493.3
2026-06-21 23:24:05.377,1498.9,1240.2,1460.2,1492.5
2026-06-21 23:24:05.378,1498.9,1239.4,1464.2,1494.1
2026-06-21 23:24:05.379,1501.3,1239.4,1464.2,1494.1
2026-06-21 23:24:05.380,1498.9,1239.4,1464.2,1496.5
2026-06-21 23:24:05.381,1498.1,1241.8,1465.1,1494.1
2026-06-21 23:24:05.382,1498.9,1241.8,1465.1,1497.3
2026-06-21 23:24:05.383,1496.5,1244.2,1465.1,1494.1
2026-06-21 23:24:05.384,1500.5,1244.2,1461,1497.3
2026-06-21 23:24:05.385,1500.5,1240.2,1463.4,1495.7
2026-06-21 23:24:05.386,1497.3,1239.4,1461.8,1494.9
2026-06-21 23:24:05.387,1499.7,1240.2,1461,1494.1
2026-06-21 23:24:05.388,1500.5,1240.2,1461.8,1493.3
2026-06-21 23:24:05.389,1501.3,1238.6,1458.6,1494.1
2026-06-21 23:24:05.390,1498.9,1237.8,1461.8,1499.7
2026-06-21 23:24:05.391,1498.9,1233.8,1459.4,1494.1
2026-06-21 23:24:05.392,1501.3,1238.6,1457,1493.3
2026-06-21 23:24:05.393,1500.5,1240.2,1457.8,1495.7
2026-06-21 23:24:05.394,1498.9,1239.4,1461.8,1494.1
2026-06-21 23:24:05.395,1499.7,1237.8,1460.2,1493.3
2026-06-21 23:24:05.396,1498.1,1240.2,1459.4,1494.1
2026-06-21 23:24:05.397,1501.3,1241.8,1461.8,1494.1
2026-06-21 23:24:05.409,1498.9,1240.2,1459.4,1495.7
2026-06-21 23:24:05.410,1491.6,1240.2,1458.6,1494.1
2026-06-21 23:24:05.411,1492.5,1244.2,1460.2,1493.3
2026-06-21 23:24:05.412,1498.1,1240.2,1461.8,1495.7
2026-06-21 23:24:05.413,1494.1,1240.2,1461,1495.7
2026-06-21 23:24:05.414,1492.5,1240.2,1463.4,1495.7
2026-06-21 23:24:05.415,1498.9,1243.4,1464.2,1497.3
2026-06-21 23:24:05.416,1494.9,1241.8,1456.2,1497.3
2026-06-21 23:24:05.417,1499.7,1240.2,1456.2,1498.9
2026-06-21 23:24:05.418,1499.7,1241.8,1455.4,1494.9
2026-06-21 23:24:05.419,1496.5,1240.2,1458.6,1494.1
2026-06-21 23:24:05.420,1498.9,1239.4,1459.4,1494.1
2026-06-21 23:24:05.421,1501.3,1241,1462.6,1497.3
2026-06-21 23:24:05.422,1498.1,1240.2,1461.8,1494.1
2026-06-21 23:24:05.423,1498.9,1240.2,1461,1494.1
2026-06-21 23:24:05.424,1498.9,1240.2,1461,1495.7
2026-06-21 23:24:05.425,1498.1,1243.4,1457,1490.8
2026-06-21 23:24:05.426,1500.5,1240.2,1456.2,1492.5
2026-06-21 23:24:05.427,1499.7,1237.8,1461,1493.3
2026-06-21 23:24:05.428,1500.5,1236.2,1459.4,1492.5
2026-06-21 23:24:05.429,1498.9,1236.2,1461,1494.9
2026-06-21 23:24:05.430,1498.9,1236.2,1461.8,1493.3
2026-06-21 23:24:05.431,1499.7,1236.2,1464.2,1494.1
2026-06-21 23:24:05.432,1498.9,1233.8,1464.2,1492.5
2026-06-21 23:24:05.433,1501.3,1236.2,1464.2,1494.1
2026-06-21 23:24:05.434,1500.5,1243.4,1457.8,1494.1
2026-06-21 23:24:05.435,1501.3,1249.1,1455.4,1492.5
2026-06-21 23:24:05.436,1501.3,1250.7,1458.6,1492.5
2026-06-21 23:24:05.437,1500.5,1246.7,1458.6,1491.6
2026-06-21 23:24:05.438,1498.9,1246.7,1464.2,1492.5
2026-06-21 23:24:05.439,1498.9,1241.8,1465.1,1497.3
2026-06-21 23:24:05.440,1498.1,1240.2,1465.1,1494.1
2026-06-21 23:24:05.441,1501.3,1240.2,1461.8,1493.3
2026-06-21 23:24:05.442,1500.5,1240.2,1462.6,1494.1
2026-06-21 23:24:05.443,1499.7,1235.4,1459.4,1493.3
2026-06-21 23:24:05.444,1498.1,1233,1461,1495.7
2026-06-21 23:24:05.445,1497.3,1232.2,1461.8,1496.5
2026-06-21 23:24:05.446,1498.1,1232.2,1461,1493.3
2026-06-21 23:24:05.447,1498.9,1233.8,1464.2,1494.1
2026-06-21 23:24:05.448,1498.1,1232.2,1464.2,1492.5
2026-06-21 23:24:05.449,1501.3,1247.5,1463.4,1494.1
2026-06-21 23:24:05.450,1501.3,1262,1459.4,1492.5
2026-06-21 23:24:05.451,1499.7,1237.8,1465.1,1497.3
2026-06-21 23:24:05.452,1500.5,1241.8,1465.1,1498.9
2026-06-21 23:24:05.453,1502.1,1241.8,1458.6,1494.1
2026-06-21 23:24:05.454,1499.7,1239.4,1458.6,1493.3
2026-06-21 23:24:05.455,1499.7,1241.8,1462.6,1494.1
2026-06-21 23:24:05.456,1498.9,1240.2,1461.8,1497.3
2026-06-21 23:24:05.457,1501.3,1240.2,1459.4,1494.9
2026-06-21 23:24:05.458,1501.3,1240.2,1457.8,1496.5
2026-06-21 23:24:05.450,1498.9,1240.2,1457.8,1494.1
2026-06-21 23:24:05.451,1498.9,1240.2,1460.2,1494.1
2026-06-21 23:24:05.452,1491.6,1233.8,1455.4,1495.7
2026-06-21 23:24:05.453,1493.3,1235.4,1460.2,1494.1
2026-06-21 23:24:05.454,1494.1,1236.2,1465.1,1494.1
2026-06-21 23:24:05.455,1494.9,1239.4,1464.2,1497.3
2026-06-21 23:24:05.456,1495.7,1237.8,1464.2,1498.1
2026-06-21 23:24:05.457,1494.9,1244.2,1465.1,1496.5
2026-06-21 23:24:05.458,1501.3,1251.5,1465.1,1499.7
2026-06-21 23:24:05.459,1498.1,1240.2,1460.2,1497.3
2026-06-21 23:24:05.460,1497.3,1241.8,1458.6,1496.5
2026-06-21 23:24:05.461,1497.3,1236.2,1456.2,1494.1
2026-06-21 23:24:05.462,1498.9,1240.2,1454.6,1494.1
2026-06-21 23:24:05.463,1501.3,1240.2,1453.8,1492.5
2026-06-21 23:24:05.464,1498.9,1240.2,1453.8,1495.7
2026-06-21 23:24:05.465,1501.3,1240.2,1456.2,1494.1
2026-06-21 23:24:05.466,1500.5,1243.4,1458.6,1492.5
2026-06-21 23:24:05.467,1498.9,1241,1459.4,1491.6
2026-06-21 23:24:05.468,1499.7,1240.2,1459.4,1491.6
2026-06-21 23:24:05.469,1501.3,1240.2,1463.4,1492.5
2026-06-21 23:24:05.470,1500.5,1240.2,1460.2,1491.6
2026-06-21 23:24:05.471,1499.7,1241.8,1463.4,1492.5
2026-06-21 23:24:05.472,1501.3,1243.4,1464.2,1492.5
2026-06-21 23:24:05.473,1500.5,1244.2,1461,1495.7
2026-06-21 23:24:05.474,1498.9,1240.2,1463.4,1492.5
2026-06-21 23:24:05.475,1501.3,1240.2,1461.8,1493.3
2026-06-21 23:24:05.476,1498.1,1240.2,1461.8,1494.1
2026-06-21 23:24:05.477,1501.3,1239.4,1462.6,1494.1
2026-06-21 23:24:05.478,1498.1,1238.6,1458.6,1493.3
2026-06-21 23:24:05.479,1501.3,1240.2,1461,1496.5
2026-06-21 23:24:05.480,1500.5,1239.4,1461.8,1492.5
2026-06-21 23:24:05.481,1498.9,1240.2,1461.8,1493.3
2026-06-21 23:24:05.482,1498.9,1238.6,1459.4,1493.3
2026-06-21 23:24:05.483,1498.9,1240.2,1459.4,1494.9
2026-06-21 23:24:05.484,1498.9,1240.2,1461.8,1495.7
2026-06-21 23:24:05.485,1500.5,1241,1461.8,1494.1
2026-06-21 23:24:05.486,1498.9,1240.2,1461,1494.1
2026-06-21 23:24:05.487,1498.9,1240.2,1464.2,1494.1
2026-06-21 23:24:05.488,1501.3,1241.8,1464.2,1492.5
2026-06-21 23:24:05.489,1498.9,1240.2,1458.6,1493.3
2026-06-21 23:24:05.490,1500.5,1239.4,1457,1494.1
2026-06-21 23:24:05.491,1501.3,1241,1463.4,1494.9
2026-06-21 23:24:05.492,1501.3,1243.4,1465.9,1494.1
2026-06-21 23:24:05.493,1499.7,1240.2,1462.6,1494.1
2026-06-21 23:24:05.494,1500.5,1239.4,1461,1494.1
2026-06-21 23:24:05.495,1498.9,1237,1457.8,1497.3
2026-06-21 23:24:05.496,1501.3,1240.2,1455.4,1494.1
2026-06-21 23:24:05.497,1498.1,1238.6,1455.4,1493.3
2026-06-21 23:24:05.498,1499.7,1237.8,1457,1496.5
2026-06-21 23:24:05.499,1500.5,1239.4,1460.2,1494.1
2026-06-21 23:24:05.509,1500.5,1240.2,1464.2,1496.5
2026-06-21 23:24:05.510,1498.1,1240.2,1464.2,1497.3
2026-06-21 23:24:05.511,1494.1,1240.2,1464.2,1497.3
2026-06-21 23:24:05.512,1494.9,1236.2,1463.4,1496.5
2026-06-21 23:24:05.513,1496.5,1240.2,1459.4,1495.7
2026-06-21 23:24:05.514,1494.9,1238.6,1457.8,1494.1
2026-06-21 23:24:05.515,1494.1,1240.2,1460.2,1497.3
2026-06-21 23:24:05.516,1498.9,1240.2,1458.6,1494.1
2026-06-21 23:24:05.517,1494.1,1240.2,1457.8,1494.1
2026-06-21 23:24:05.518,1497.3,1240.2,1457,1495.7
2026-06-21 23:24:05.519,1497.3,1240.2,1459.4,1497.3
2026-06-21 23:24:05.520,1500.5,1240.2,1460.2,1494.1
2026-06-21 23:24:05.521,1498.1,1240.2,1459.4,1495.7
2026-06-21 23:24:05.522,1498.9,1237,1456.2,1496.5
2026-06-21 23:24:05.523,1498.1,1236.2,1456.2,1494.9
2026-06-21 23:24:05.524,1498.1,1233.8,1458.6,1493.3
2026-06-21 23:24:05.525,1498.1,1233.8,1461,1492.5
2026-06-21 23:24:05.526,1500.5,1238.6,1460.2,1492.5
2026-06-21 23:24:05.527,1498.9,1236.2,1461.8,1492.5
2026-06-21 23:24:05.528,1501.3,1240.2,1457.8,1492.5
2026-06-21 23:24:05.529,1501.3,1243.4,1456.2,1492.5
2026-06-21 23:24:05.530,1499.7,1244.2,1454.6,1491.6
2026-06-21 23:24:05.531,1500.5,1239.4,1454.6,1492.5
2026-06-21 23:24:05.532,1504.5,1237.8,1455.4,1492.5
2026-06-21 23:24:05.533,1499.7,1240.2,1456.2,1492.5
2026-06-21 23:24:05.534,1499.7,1240.2,1457.8,1493.3
2026-06-21 23:24:05.535,1501.3,1239.4,1461.8,1494.1
2026-06-21 23:24:05.536,1499.7,1241.8,1464.2,1494.9
2026-06-21 23:24:05.537,1500.5,1252.3,1460.2,1497.3
2026-06-21 23:24:05.538,1500.5,1252.3,1461.8,1495.7
2026-06-21 23:24:05.539,1498.9,1246.7,1465.1,1494.1
2026-06-21 23:24:05.540,1501.3,1244.2,1465.1,1494.1
2026-06-21 23:24:05.541,1498.9,1240.2,1461.8,1496.5
2026-06-21 23:24:05.542,1500.5,1239.4,1464.2,1493.3
2026-06-21 23:24:05.543,1498.9,1241.8,1459.4,1494.1
2026-06-21 23:24:05.544,1502.1,1240.2,1453.8,1494.1
2026-06-21 23:24:05.545,1501.3,1243.4,1457.8,1493.3
2026-06-21 23:24:05.546,1500.5,1244.2,1461.8,1496.5
2026-06-21 23:24:05.547,1500.5,1241.8,1458.6,1494.1
2026-06-21 23:24:05.548,1499.7,1240.2,1459.4,1492.5
2026-06-21 23:24:05.549,1499.7,1239.4,1460.2,1494.1
2026-06-21 23:24:05.550,1501.3,1231.4,1461.8,1495.7
2026-06-21 23:24:05.551,1499.7,1235.4,1464.2,1495.7
2026-06-21 23:24:05.552,1501.3,1242.6,1457.8,1492.5
2026-06-21 23:24:05.553,1502.1,1243.4,1455.4,1492.5
2026-06-21 23:24:05.554,1498.9,1240.2,1455.4,1494.1
2026-06-21 23:24:05.555,1501.3,1240.2,1463.4,1495.7
2026-06-21 23:24:05.556,1501.3,1239.4,1465.9,1497.3
2026-06-21 23:24:05.557,1501.3,1236.2,1461.8,1501.3
2026-06-21 23:24:05.558,1501.3,1240.2,1465.1,1502.1
2026-06-21 23:24:05.548,1501.3,1241,1465.1,1497.3
2026-06-21 23:24:05.549,1498.9,1244.2,1461.8,1495.7
2026-06-21 23:24:05.550,1496.5,1240.2,1455.4,1492.5
2026-06-21 23:24:05.551,1494.9,1240.2,1458.6,1494.1
2026-06-21 23:24:05.552,1494.9,1239.4,1454.6,1494.1
2026-06-21 23:24:05.553,1496.5,1239.4,1460.2,1495.7
2026-06-21 23:24:05.554,1494.9,1240.2,1459.4,1494.1
2026-06-21 23:24:05.555,1495.7,1239.4,1464.2,1494.1
2026-06-21 23:24:05.556,1496.5,1240.2,1454.6,1497.3
2026-06-21 23:24:05.557,1498.9,1241.8,1457.8,1495.7
2026-06-21 23:24:05.558,1498.1,1240.2,1457.8,1496.5
2026-06-21 23:24:05.559,1497.3,1240.2,1456.2,1494.1
2026-06-21 23:24:05.560,1498.1,1239.4,1455.4,1495.7
2026-06-21 23:24:05.561,1498.1,1238.6,1455.4,1493.3
2026-06-21 23:24:05.562,1498.9,1241,1455.4,1493.3
2026-06-21 23:24:05.563,1498.9,1240.2,1455.4,1493.3
2026-06-21 23:24:05.564,1498.9,1240.2,1459.4,1492.5
2026-06-21 23:24:05.565,1500.5,1240.2,1456.2,1494.1
2026-06-21 23:24:05.566,1500.5,1241.8,1455.4,1494.1
2026-06-21 23:24:05.567,1498.9,1240.2,1455.4,1494.1
2026-06-21 23:24:05.568,1498.1,1239.4,1456.2,1493.3
2026-06-21 23:24:05.569,1501.3,1241,1458.6,1494.1
2026-06-21 23:24:05.570,1501.3,1241,1459.4,1494.1
2026-06-21 23:24:05.571,1500.5,1243.4,1459.4,1492.5
2026-06-21 23:24:05.572,1498.9,1241,1461,1492.5
2026-06-21 23:24:05.573,1501.3,1240.2,1462.6,1492.5
2026-06-21 23:24:05.574,1499.7,1240.2,1459.4,1492.5
2026-06-21 23:24:05.575,1498.1,1240.2,1459.4,1493.3
2026-06-21 23:24:05.576,1499.7,1240.2,1459.4,1492.5
2026-06-21 23:24:05.577,1501.3,1240.2,1459.4,1492.5
2026-06-21 23:24:05.578,1500.5,1241.8,1461,1492.5
2026-06-21 23:24:05.579,1500.5,1240.2,1461,1492.5
2026-06-21 23:24:05.580,1498.9,1241,1462.6,1492.5
2026-06-21 23:24:05.581,1501.3,1240.2,1458.6,1492.5
2026-06-21 23:24:05.582,1500.5,1239.4,1464.2,1493.3
2026-06-21 23:24:05.583,1499.7,1240.2,1461,1493.3
2026-06-21 23:24:05.584,1498.9,1240.2,1461,1492.5
2026-06-21 23:24:05.585,1499.7,1240.2,1461,1495.7
2026-06-21 23:24:05.586,1498.9,1240.2,1459.4,1492.5
2026-06-21 23:24:05.587,1500.5,1240.2,1459.4,1495.7
2026-06-21 23:24:05.588,1498.9,1237.8,1461.8,1494.9
2026-06-21 23:24:05.589,1502.1,1240.2,1465.1,1493.3
2026-06-21 23:24:05.590,1498.9,1237,1464.2,1497.3
2026-06-21 23:24:05.591,1500.5,1237.8,1461,1497.3
2026-06-21 23:24:05.592,1498.9,1240.2,1458.6,1494.1
2026-06-21 23:24:05.593,1499.7,1237.8,1460.2,1494.1
2026-06-21 23:24:05.594,1500.5,1240.2,1459.4,1494.9
2026-06-21 23:24:05.595,1498.9,1241,1461,1494.1
2026-06-21 23:24:05.596,1500.5,1240.2,1461.8,1494.1
2026-06-21 23:24:05.597,1498.9,1241.8,1458.6,1494.1
2026-06-21 23:24:05.609,1497.3,1240.2,1459.4,1496.5
2026-06-21 23:24:05.610,1494.1,1240.2,1461,1494.1
2026-06-21 23:24:05.611,1494.9,1237.8,1461.8,1492.5
2026-06-21 23:24:05.612,1494.9,1239.4,1461.8,1496.5
2026-06-21 23:24:05.613,1496.5,1240.2,1462.6,1495.7
2026-06-21 23:24:05.614,1494.9,1239.4,1461,1498.9
2026-06-21 23:24:05.615,1494.9,1240.2,1464.2,1493.3
2026-06-21 23:24:05.616,1497.3,1240.2,1461.8,1495.7
2026-06-21 23:24:05.617,1496.5,1243.4,1460.2,1496.5
2026-06-21 23:24:05.618,1500.5,1240.2,1457.8,1495.7
2026-06-21 23:24:05.619,1495.7,1240.2,1460.2,1494.1
2026-06-21 23:24:05.620,1496.5,1240.2,1460.2,1494.1
2026-06-21 23:24:05.621,1497.3,1241,1460.2,1497.3
2026-06-21 23:24:05.622,1497.3,1240.2,1460.2,1498.9
2026-06-21 23:24:05.623,1500.5,1240.2,1457,1497.3
2026-06-21 23:24:05.624,1499.7,1238.6,1455.4,1494.1
2026-06-21 23:24:05.625,1498.1,1243.4,1458.6,1492.5
2026-06-21 23:24:05.626,1500.5,1240.2,1462.6,1494.1
2026-06-21 23:24:05.627,1498.9,1240.2,1461.8,1493.3
2026-06-21 23:24:05.628,1498.9,1238.6,1456.2,1493.3
2026-06-21 23:24:05.629,1498.9,1236.2,1459.4,1492.5
2026-06-21 23:24:05.630,1499.7,1237.8,1456.2,1492.5
2026-06-21 23:24:05.631,1500.5,1237.8,1461,1493.3
2026-06-21 23:24:05.632,1497.3,1236.2,1465.1,1493.3
2026-06-21 23:24:05.633,1498.1,1237,1465.1,1492.5
2026-06-21 23:24:05.634,1500.5,1244.2,1461.8,1494.1
2026-06-21 23:24:05.635,1498.1,1241.8,1462.6,1498.9
2026-06-21 23:24:05.636,1498.9,1240.2,1460.2,1495.7
2026-06-21 23:24:05.637,1500.5,1237,1457.8,1494.1
2026-06-21 23:24:05.638,1501.3,1244.2,1458.6,1493.3
2026-06-21 23:24:05.639,1501.3,1242.6,1459.4,1492.5
2026-06-21 23:24:05.640,1498.9,1244.2,1459.4,1494.9
2026-06-21 23:24:05.641,1499.7,1247.5,1461.8,1495.7
2026-06-21 23:24:05.642,1498.9,1240.2,1461,1494.1
2026-06-21 23:24:05.643,1498.9,1240.2,1463.4,1494.1
2026-06-21 23:24:05.644,1500.5,1239.4,1464.2,1494.9
2026-06-21 23:24:05.645,1499.7,1239.4,1464.2,1494.1
2026-06-21 23:24:05.646,1501.3,1241.8,1462.6,1496.5
2026-06-21 23:24:05.647,1498.9,1244.2,1462.6,1500.5
2026-06-21 23:24:05.648,1501.3,1241.8,1457.8,1493.3
2026-06-21 23:24:05.649,1499.7,1239.4,1454.6,1493.3
2026-06-21 23:24:05.650,1500.5,1239.4,1469.9,1493.3
2026-06-21 23:24:05.651,1498.9,1235.4,1465.1,1494.1
2026-06-21 23:24:05.652,1500.5,1239.4,1450.5,1498.1
2026-06-21 23:24:05.653,1498.1,1237.8,1455.4,1494.9
2026-06-21 23:24:05.654,1498.9,1240.2,1459.4,1497.3
2026-06-21 23:24:05.655,1499.7,1242.6,1462.6,1494.1
2026-06-21 23:24:05.656,1501.3,1242.6,1465.9,1494.1
2026-06-21 23:24:05.657,1498.9,1240.2,1465.1,1493.3
2026-06-21 23:24:05.658,1498.9,1240.2,1461,1493.3
2026-06-21 23:24:05.648,1500.5,1238.6,1456.2,1494.1
2026-06-21 23:24:05.649,1497.3,1236.2,1455.4,1494.1
2026-06-21 23:24:05.650,1492.5,1240.2,1461,1495.7
2026-06-21 23:24:05.651,1497.3,1240.2,1463.4,1494.1
2026-06-21 23:24:05.652,1496.5,1240.2,1464.2,1497.3
2026-06-21 23:24:05.653,1497.3,1240.2,1461,1496.5
2026-06-21 23:24:05.654,1498.1,1237.8,1459.4,1494.1
2026-06-21 23:24:05.655,1498.9,1240.2,1458.6,1494.1
2026-06-21 23:24:05.656,1497.3,1239.4,1463.4,1495.7
2026-06-21 23:24:05.657,1494.9,1242.6,1457.8,1494.1
2026-06-21 23:24:05.658,1499.7,1241,1458.6,1495.7
2026-06-21 23:24:05.659,1498.9,1242.6,1461.8,1495.7
2026-06-21 23:24:05.660,1501.3,1240.2,1457.8,1494.1
2026-06-21 23:24:05.661,1498.1,1240.2,1461,1494.1
2026-06-21 23:24:05.662,1497.3,1240.2,1455.4,1494.1
2026-06-21 23:24:05.663,1498.9,1240.2,1455.4,1494.1
2026-06-21 23:24:05.664,1501.3,1240.2,1458.6,1492.5
2026-06-21 23:24:05.665,1500.5,1240.2,1458.6,1493.3
2026-06-21 23:24:05.666,1501.3,1241,1459.4,1494.1
2026-06-21 23:24:05.667,1499.7,1240.2,1457,1492.5
2026-06-21 23:24:05.668,1499.7,1243.4,1457.8,1494.1
2026-06-21 23:24:05.669,1502.1,1240.2,1459.4,1494.1
2026-06-21 23:24:05.670,1500.5,1238.6,1463.4,1493.3
2026-06-21 23:24:05.671,1501.3,1241.8,1462.6,1493.3
2026-06-21 23:24:05.672,1501.3,1240.2,1463.4,1493.3
2026-06-21 23:24:05.673,1501.3,1241.8,1461.8,1492.5
2026-06-21 23:24:05.674,1498.1,1240.2,1459.4,1494.1
2026-06-21 23:24:05.675,1498.1,1239.4,1460.2,1493.3
2026-06-21 23:24:05.676,1498.9,1240.2,1461,1494.9
2026-06-21 23:24:05.677,1500.5,1240.2,1464.2,1496.5
2026-06-21 23:24:05.678,1502.1,1240.2,1461,1494.1
2026-06-21 23:24:05.679,1500.5,1240.2,1461.8,1494.1
2026-06-21 23:24:05.680,1498.9,1240.2,1461.8,1494.1
2026-06-21 23:24:05.681,1499.7,1240.2,1458.6,1494.1
2026-06-21 23:24:05.682,1501.3,1240.2,1457.8,1495.7
2026-06-21 23:24:05.683,1498.9,1240.2,1458.6,1494.1
2026-06-21 23:24:05.684,1498.1,1239.4,1458.6,1493.3
2026-06-21 23:24:05.685,1498.9,1240.2,1462.6,1494.1
2026-06-21 23:24:05.686,1498.9,1240.2,1460.2,1494.1
2026-06-21 23:24:05.687,1501.3,1240.2,1463.4,1494.1
2026-06-21 23:24:05.688,1500.5,1241,1457.8,1494.1
2026-06-21 23:24:05.689,1500.5,1240.2,1462.6,1493.3
2026-06-21 23:24:05.690,1501.3,1238.6,1455.4,1496.5
2026-06-21 23:24:05.691,1499.7,1240.2,1460.2,1494.1
2026-06-21 23:24:05.692,1501.3,1240.2,1457.8,1493.3
2026-06-21 23:24:05.693,1499.7,1240.2,1457.8,1494.1
2026-06-21 23:24:05.694,1498.9,1238.6,1455.4,1494.1
2026-06-21 23:24:05.695,1499.7,1239.4,1455.4,1492.5
2026-06-21 23:24:05.696,1499.7,1240.2,1459.4,1495.7
2026-06-21 23:24:05.697,1498.9,1240.2,1461,1498.9
2026-06-21 23:24:05.709,1494.9,1239.4,1464.2,1495.7
2026-06-21 23:24:05.710,1493.3,1240.2,1460.2,1492.5
2026-06-21 23:24:05.711,1496.5,1240.2,1464.2,1497.3
2026-06-21 23:24:05.712,1498.1,1240.2,1459.4,1494.1
2026-06-21 23:24:05.713,1493.3,1240.2,1457,1494.9
2026-06-21 23:24:05.714,1494.9,1240.2,1459.4,1498.9
2026-06-21 23:24:05.715,1498.1,1240.2,1458.6,1494.1
2026-06-21 23:24:05.716,1498.1,1238.6,1458.6,1492.5
2026-06-21 23:24:05.717,1498.1,1240.2,1458.6,1494.1
2026-06-21 23:24:05.718,1496.5,1236.2,1463.4,1496.5
2026-06-21 23:24:05.719,1500.5,1240.2,1464.2,1494.1
2026-06-21 23:24:05.720,1501.3,1236.2,1457.8,1497.3
2026-06-21 23:24:05.721,1498.9,1233.8,1453.8,1495.7
2026-06-21 23:24:05.722,1500.5,1239.4,1457.8,1495.7
2026-06-21 23:24:05.723,1498.1,1235.4,1455.4,1495.7
2026-06-21 23:24:05.724,1497.3,1236.2,1453.8,1498.9
2026-06-21 23:24:05.725,1500.5,1241.8,1453.8,1492.5
2026-06-21 23:24:05.726,1499.7,1250.7,1464.2,1494.1
2026-06-21 23:24:05.727,1500.5,1241.8,1461,1492.5
2026-06-21 23:24:05.728,1499.7,1241,1461,1494.1
2026-06-21 23:24:05.729,1498.1,1237.8,1460.2,1494.1
2026-06-21 23:24:05.730,1500.5,1240.2,1459.4,1494.1
2026-06-21 23:24:05.731,1498.1,1243.4,1459.4,1492.5
2026-06-21 23:24:05.732,1501.3,1240.2,1461.8,1492.5
2026-06-21 23:24:05.733,1498.9,1240.2,1458.6,1492.5
2026-06-21 23:24:05.734,1498.9,1239.4,1454.6,1494.1
2026-06-21 23:24:05.735,1499.7,1242.6,1459.4,1492.5
2026-06-21 23:24:05.736,1498.9,1241,1460.2,1495.7
2026-06-21 23:24:05.737,1497.3,1241,1459.4,1494.9
2026-06-21 23:24:05.738,1499.7,1240.2,1462.6,1494.1
2026-06-21 23:24:05.739,1499.7,1240.2,1461.8,1494.1
2026-06-21 23:24:05.740,1498.9,1240.2,1462.6,1493.3
2026-06-21 23:24:05.741,1500.5,1237.8,1461,1493.3
2026-06-21 23:24:05.742,1499.7,1240.2,1459.4,1492.5
2026-06-21 23:24:05.743,1498.9,1238.6,1465.1,1494.1
2026-06-21 23:24:05.744,1501.3,1238.6,1461.8,1493.3
2026-06-21 23:24:05.745,1498.9,1239.4,1464.2,1493.3
2026-06-21 23:24:05.746,1498.9,1241.8,1465.1,1492.5
2026-06-21 23:24:05.747,1500.5,1243.4,1465.1,1492.5
2026-06-21 23:24:05.748,1498.1,1242.6,1464.2,1494.1
2026-06-21 23:24:05.749,1498.9,1240.2,1457.8,1494.1
2026-06-21 23:24:05.750,1499.7,1240.2,1456.2,1498.9
2026-06-21 23:24:05.751,1498.9,1236.2,1460.2,1497.3
2026-06-21 23:24:05.752,1502.1,1238.6,1461,1493.3
2026-06-21 23:24:05.753,1501.3,1241,1458.6,1494.1
2026-06-21 23:24:05.754,1498.9,1242.6,1461,1492.5
2026-06-21 23:24:05.755,1501.3,1246.7,1463.4,1496.5
2026-06-21 23:24:05.756,1500.5,1243.4,1464.2,1499.7
2026-06-21 23:24:05.757,1500.5,1240.2,1461.8,1495.7
2026-06-21 23:24:05.758,1499.7,1239.4,1462.6,1494.1
2026-06-21 23:24:05.749,1500.5,1238.6,1462.6,1497.3
2026-06-21 23:24:05.750,1500.5,1236.2,1463.4,1494.1
2026-06-21 23:24:05.751,1494.1,1240.2,1459.4,1494.1
2026-06-21 23:24:05.752,1498.1,1240.2,1459.4,1497.3
2026-06-21 23:24:05.753,1494.9,1240.2,1459.4,1494.9
2026-06-21 23:24:05.754,1495.7,1241.8,1461,1494.1
2026-06-21 23:24:05.755,1494.9,1244.2,1462.6,1494.1
2026-06-21 23:24:05.756,1497.3,1243.4,1461,1494.9
2026-06-21 23:24:05.757,1497.3,1240.2,1455.4,1494.1
2026-06-21 23:24:05.758,1498.9,1242.6,1458.6,1495.7
2026-06-21 23:24:05.759,1500.5,1241,1458.6,1498.1
2026-06-21 23:24:05.760,1498.9,1241.8,1461,1497.3
2026-06-21 23:24:05.761,1499.7,1240.2,1457.8,1493.3
2026-06-21 23:24:05.762,1500.5,1240.2,1458.6,1494.1
2026-06-21 23:24:05.763,1501.3,1241,1453.8,1493.3
2026-06-21 23:24:05.764,1497.3,1240.2,1453.8,1498.9
2026-06-21 23:24:05.765,1498.9,1240.2,1456.2,1491.6
2026-06-21 23:24:05.766,1498.9,1239.4,1465.1,1491.6
2026-06-21 23:24:05.767,1494.9,1240.2,1464.2,1493.3
2026-06-21 23:24:05.768,1497.3,1238.6,1461,1494.1
2026-06-21 23:24:05.769,1500.5,1240.2,1461.8,1492.5
2026-06-21 23:24:05.770,1498.9,1240.2,1461,1493.3
2026-06-21 23:24:05.771,1501.3,1240.2,1460.2,1492.5
2026-06-21 23:24:05.772,1498.9,1240.2,1460.2,1494.1
2026-06-21 23:24:05.773,1501.3,1239.4,1458.6,1493.3
2026-06-21 23:24:05.774,1498.9,1240.2,1458.6,1494.1
2026-06-21 23:24:05.775,1499.7,1240.2,1459.4,1493.3
2026-06-21 23:24:05.776,1498.1,1240.2,1460.2,1492.5
2026-06-21 23:24:05.777,1501.3,1241.8,1460.2,1492.5
2026-06-21 23:24:05.778,1498.1,1244.2,1464.2,1492.5
2026-06-21 23:24:05.779,1499.7,1240.2,1460.2,1494.1
2026-06-21 23:24:05.780,1500.5,1241,1463.4,1493.3
2026-06-21 23:24:05.781,1500.5,1241.8,1459.4,1493.3
2026-06-21 23:24:05.782,1498.9,1240.2,1465.1,1494.1
2026-06-21 23:24:05.783,1501.3,1240.2,1458.6,1493.3
2026-06-21 23:24:05.784,1500.5,1241.8,1461.8,1493.3
2026-06-21 23:24:05.785,1500.5,1240.2,1461.8,1494.1
2026-06-21 23:24:05.786,1501.3,1240.2,1463.4,1490.8
2026-06-21 23:24:05.787,1499.7,1240.2,1458.6,1494.1
2026-06-21 23:24:05.788,1500.5,1240.2,1459.4,1494.1
2026-06-21 23:24:05.789,1499.7,1240.2,1459.4,1493.3
2026-06-21 23:24:05.790,1500.5,1239.4,1459.4,1495.7
2026-06-21 23:24:05.791,1498.1,1239.4,1461.8,1493.3
2026-06-21 23:24:05.792,1499.7,1239.4,1464.2,1494.1
2026-06-21 23:24:05.793,1499.7,1240.2,1459.4,1494.1
2026-06-21 23:24:05.794,1499.7,1237,1462.6,1495.7
2026-06-21 23:24:05.795,1501.3,1237.8,1461.8,1496.5
2026-06-21 23:24:05.796,1501.3,1233.8,1455.4,1496.5
2026-06-21 23:24:05.797,1499.7,1236.2,1455.4,1492.5
2026-06-21 23:24:05.798,1498.9,1236.2,1455.4,1494.1
2026-06-21 23:24:05.808,1500.5,1241,1458.6,1494.1
2026-06-21 23:24:05.809,1500.5,1238.6,1460.2,1494.1
2026-06-21 23:24:05.810,1494.1,1249.9,1461.8,1492.5
2026-06-21 23:24:05.811,1498.1,1249.1,1464.2,1493.3
2026-06-21 23:24:05.812,1497.3,1244.2,1461.8,1492.5
2026-06-21 23:24:05.813,1497.3,1240.2,1463.4,1496.5
2026-06-21 23:24:05.814,1496.5,1240.2,1464.2,1493.3
2026-06-21 23:24:05.815,1498.1,1236.2,1459.4,1496.5
2026-06-21 23:24:05.816,1496.5,1237.8,1457.8,1494.1
2026-06-21 23:24:05.817,1498.9,1237,1455.4,1494.1
2026-06-21 23:24:05.818,1498.1,1236.2,1461,1494.1
2026-06-21 23:24:05.819,1500.5,1240.2,1459.4,1494.1
2026-06-21 23:24:05.820,1498.9,1244.2,1456.2,1493.3
2026-06-21 23:24:05.821,1499.7,1246.7,1459.4,1492.5
2026-06-21 23:24:05.822,1500.5,1241,1458.6,1493.3
2026-06-21 23:24:05.823,1499.7,1245.9,1454.6,1492.5
2026-06-21 23:24:05.824,1498.9,1241,1455.4,1490.8
2026-06-21 23:24:05.825,1500.5,1240.2,1459.4,1492.5
2026-06-21 23:24:05.826,1499.7,1241.8,1459.4,1492.5
2026-06-21 23:24:05.827,1501.3,1244.2,1459.4,1493.3
2026-06-21 23:24:05.828,1498.1,1244.2,1461,1492.5
2026-06-21 23:24:05.829,1501.3,1241,1462.6,1492.5
2026-06-21 23:24:05.830,1498.9,1241.8,1461,1491.6
2026-06-21 23:24:05.831,1501.3,1240.2,1458.6,1492.5
2026-06-21 23:24:05.832,1498.9,1239.4,1459.4,1491.6
2026-06-21 23:24:05.833,1499.7,1237.8,1463.4,1494.1
2026-06-21 23:24:05.834,1498.9,1239.4,1457.8,1495.7
2026-06-21 23:24:05.835,1498.9,1236.2,1461.8,1492.5
2026-06-21 23:24:05.836,1500.5,1239.4,1457,1492.5
2026-06-21 23:24:05.837,1500.5,1240.2,1460.2,1494.1
2026-06-21 23:24:05.838,1501.3,1244.2,1459.4,1492.5
2026-06-21 23:24:05.839,1498.1,1241,1460.2,1492.5
2026-06-21 23:24:05.840,1501.3,1238.6,1457.8,1492.5
2026-06-21 23:24:05.841,1501.3,1236.2,1457.8,1494.1
2026-06-21 23:24:05.842,1498.9,1238.6,1457,1493.3
2026-06-21 23:24:05.843,1500.5,1240.2,1458.6,1492.5
2026-06-21 23:24:05.844,1498.9,1240.2,1461,1494.1
2026-06-21 23:24:05.845,1498.9,1239.4,1459.4,1492.5
2026-06-21 23:24:05.846,1498.9,1239.4,1459.4,1492.5
2026-06-21 23:24:05.847,1501.3,1244.2,1457.8,1493.3
2026-06-21 23:24:05.848,1500.5,1241.8,1457.8,1492.5
2026-06-21 23:24:05.849,1500.5,1240.2,1455.4,1492.5
2026-06-21 23:24:05.850,1499.7,1240.2,1463.4,1495.7
2026-06-21 23:24:05.851,1500.5,1240.2,1464.2,1494.1
2026-06-21 23:24:05.852,1499.7,1236.2,1460.2,1492.5
2026-06-21 23:24:05.853,1501.3,1240.2,1459.4,1494.1
2026-06-21 23:24:05.854,1502.1,1240.2,1457.8,1494.1
2026-06-21 23:24:05.855,1499.7,1240.2,1458.6,1492.5
2026-06-21 23:24:05.856,1498.9,1238.6,1460.2,1492.5
2026-06-21 23:24:05.857,1500.5,1240.2,1458.6,1494.1
2026-06-21 23:24:05.848,1500.5,1239.4,1455.4,1492.5
2026-06-21 23:24:05.849,1497.3,1239.4,1452.2,1493.3
2026-06-21 23:24:05.850,1494.9,1241.8,1465.1,1494.9
2026-06-21 23:24:05.851,1494.9,1241.8,1465.9,1495.7
2026-06-21 23:24:05.852,1494.9,1240.2,1467.5,1494.1
2026-06-21 23:24:05.853,1498.1,1240.2,1461,1496.5
2026-06-21 23:24:05.854,1498.9,1240.2,1457.8,1500.5
2026-06-21 23:24:05.855,1496.5,1237.8,1460.2,1496.5
2026-06-21 23:24:05.856,1498.9,1240.2,1465.1,1496.5
2026-06-21 23:24:05.857,1498.9,1236.2,1461,1492.5
2026-06-21 23:24:05.858,1499.7,1240.2,1457,1490.8
2026-06-21 23:24:05.859,1500.5,1239.4,1453.8,1492.5
2026-06-21 23:24:05.860,1501.3,1246.7,1455.4,1494.1
2026-06-21 23:24:05.861,1497.3,1251.5,1455.4,1494.1
2026-06-21 23:24:05.862,1500.5,1241.8,1459.4,1492.5
2026-06-21 23:24:05.863,1500.5,1240.2,1460.2,1492.5
2026-06-21 23:24:05.864,1500.5,1238.6,1456.2,1492.5
2026-06-21 23:24:05.865,1498.9,1237.8,1459.4,1492.5
2026-06-21 23:24:05.866,1500.5,1240.2,1456.2,1492.5
2026-06-21 23:24:05.867,1501.3,1241.8,1456.2,1493.3
2026-06-21 23:24:05.868,1499.7,1243.4,1461,1492.5
2026-06-21 23:24:05.869,1501.3,1244.2,1461.8,1492.5
2026-06-21 23:24:05.870,1501.3,1244.2,1463.4,1492.5
2026-06-21 23:24:05.871,1499.7,1241,1461.8,1492.5
2026-06-21 23:24:05.872,1501.3,1240.2,1465.1,1497.3
2026-06-21 23:24:05.873,1501.3,1241.8,1465.1,1494.1
2026-06-21 23:24:05.874,1500.5,1244.2,1465.1,1492.5
2026-06-21 23:24:05.875,1501.3,1244.2,1458.6,1495.7
2026-06-21 23:24:05.876,1501.3,1240.2,1452.2,1492.5
2026-06-21 23:24:05.877,1501.3,1240.2,1458.6,1494.1
2026-06-21 23:24:05.878,1500.5,1240.2,1450.5,1492.5
2026-06-21 23:24:05.879,1497.3,1240.2,1457,1493.3
2026-06-21 23:24:05.880,1501.3,1240.2,1457.8,1492.5
2026-06-21 23:24:05.881,1500.5,1240.2,1457.8,1492.5
2026-06-21 23:24:05.882,1499.7,1241.8,1461.8,1494.1
2026-06-21 23:24:05.883,1499.7,1241.8,1461.8,1494.1
2026-06-21 23:24:05.884,1501.3,1241,1462.6,1494.1
2026-06-21 23:24:05.885,1501.3,1239.4,1455.4,1494.1
2026-06-21 23:24:05.886,1499.7,1240.2,1459.4,1494.1
2026-06-21 23:24:05.887,1499.7,1240.2,1461.8,1493.3
2026-06-21 23:24:05.888,1500.5,1240.2,1461,1491.6
2026-06-21 23:24:05.889,1498.9,1238.6,1452.2,1492.5
2026-06-21 23:24:05.890,1498.9,1236.2,1455.4,1492.5
2026-06-21 23:24:05.891,1500.5,1238.6,1461,1493.3
2026-06-21 23:24:05.892,1500.5,1239.4,1461.8,1494.1
2026-06-21 23:24:05.893,1501.3,1237.8,1457.8,1494.1
2026-06-21 23:24:05.894,1500.5,1239.4,1458.6,1494.1
2026-06-21 23:24:05.895,1501.3,1240.2,1455.4,1495.7
2026-06-21 23:24:05.896,1501.3,1244.2,1461,1494.1
2026-06-21 23:24:05.897,1498.9,1241.8,1461.8,1495.7
2026-06-21 23:24:05.909,1498.9,1240.2,1461,1496.5
2026-06-21 23:24:05.910,1494.9,1236.2,1458.6,1495.7
2026-06-21 23:24:05.911,1492.5,1240.2,1463.4,1494.1
2026-06-21 23:24:05.912,1496.5,1240.2,1464.2,1493.3
2026-06-21 23:24:05.913,1494.9,1240.2,1461.8,1494.1
2026-06-21 23:24:05.914,1497.3,1241,1463.4,1494.1
2026-06-21 23:24:05.915,1498.1,1246.7,1463.4,1497.3
2026-06-21 23:24:05.916,1498.9,1241.8,1455.4,1493.3
2026-06-21 23:24:05.917,1494.1,1240.2,1460.2,1494.9
2026-06-21 23:24:05.918,1497.3,1240.2,1461,1494.9
2026-06-21 23:24:05.919,1497.3,1239.4,1457.8,1497.3
2026-06-21 23:24:05.920,1494.9,1240.2,1459.4,1496.5
2026-06-21 23:24:05.921,1498.1,1239.4,1460.2,1494.1
2026-06-21 23:24:05.922,1501.3,1240.2,1463.4,1493.3
2026-06-21 23:24:05.923,1498.1,1237.8,1457.8,1493.3
2026-06-21 23:24:05.924,1498.9,1240.2,1457.8,1492.5
2026-06-21 23:24:05.925,1498.9,1239.4,1455.4,1492.5
2026-06-21 23:24:05.926,1499.7,1240.2,1458.6,1492.5
2026-06-21 23:24:05.927,1498.1,1239.4,1461.8,1493.3
2026-06-21 23:24:05.928,1498.9,1241.8,1461.8,1494.1
2026-06-21 23:24:05.929,1497.3,1241.8,1462.6,1494.1
2026-06-21 23:24:05.930,1498.9,1240.2,1461.8,1494.1
2026-06-21 23:24:05.931,1499.7,1238.6,1460.2,1492.5
2026-06-21 23:24:05.932,1499.7,1237,1457.8,1492.5
2026-06-21 23:24:05.933,1498.1,1237.8,1457,1493.3
2026-06-21 23:24:05.934,1497.3,1237.8,1458.6,1492.5
2026-06-21 23:24:05.935,1498.9,1240.2,1463.4,1492.5
2026-06-21 23:24:05.936,1499.7,1241,1460.2,1494.1
2026-06-21 23:24:05.937,1498.9,1244.2,1461.8,1494.1
2026-06-21 23:24:05.938,1501.3,1241,1461.8,1494.1
2026-06-21 23:24:05.939,1499.7,1240.2,1459.4,1494.9
2026-06-21 23:24:05.940,1501.3,1237.8,1457,1494.9
2026-06-21 23:24:05.941,1500.5,1240.2,1456.2,1492.5
2026-06-21 23:24:05.942,1499.7,1242.6,1455.4,1494.1
2026-06-21 23:24:05.943,1498.9,1241.8,1461.8,1493.3
2026-06-21 23:24:05.944,1501.3,1240.2,1465.1,1497.3
2026-06-21 23:24:05.945,1499.7,1242.6,1465.1,1491.6
2026-06-21 23:24:05.946,1498.9,1244.2,1463.4,1493.3
2026-06-21 23:24:05.947,1499.7,1240.2,1464.2,1494.1
2026-06-21 23:24:05.948,1499.7,1244.2,1461,1494.1
2026-06-21 23:24:05.949,1501.3,1241.8,1461.8,1494.1
2026-06-21 23:24:05.950,1501.3,1236.2,1461.8,1492.5
2026-06-21 23:24:05.951,1500.5,1233.8,1459.4,1494.1
2026-06-21 23:24:05.952,1501.3,1233.8,1457.8,1495.7
2026-06-21 23:24:05.953,1501.3,1232.2,1458.6,1494.1
2026-06-21 23:24:05.954,1501.3,1240.2,1457.8,1492.5
2026-06-21 23:24:05.955,1499.7,1241,1455.4,1495.7
2026-06-21 23:24:05.956,1498.9,1240.2,1455.4,1494.1
2026-06-21 23:24:05.957,1499.7,1240.2,1456.2,1494.1
2026-06-21 23:24:05.958,1498.9,1239.4,1461.8,1493.3
2026-06-21 23:24:05.950,1500.5,1239.4,1465.1,1498.9
2026-06-21 23:24:05.951,1497.3,1233.8,1465.1,1494.1
2026-06-21 23:24:05.952,1496.5,1255.5,1465.1,1494.9
2026-06-21 23:24:05.953,1494.9,1242.6,1464.2,1490
2026-06-21 23:24:05.954,1494.9,1241.8,1461,1491.6
2026-06-21 23:24:05.955,1494.9,1241.8,1459.4,1494.9
2026-06-21 23:24:05.956,1496.5,1241,1457.8,1494.9
2026-06-21 23:24:05.957,1496.5,1240.2,1457,1498.9
2026-06-21 23:24:05.958,1497.3,1241,1452.2,1495.7
2026-06-21 23:24:05.959,1498.1,1240.2,1457,1497.3
2026-06-21 23:24:05.960,1498.1,1240.2,1457.8,1495.7
2026-06-21 23:24:05.961,1496.5,1240.2,1457.8,1493.3
2026-06-21 23:24:05.962,1498.9,1240.2,1457.8,1494.1
2026-06-21 23:24:05.963,1500.5,1240.2,1455.4,1494.1
2026-06-21 23:24:05.964,1498.9,1240.2,1461,1494.1
2026-06-21 23:24:05.965,1499.7,1241.8,1459.4,1492.5
2026-06-21 23:24:05.966,1498.1,1240.2,1461.8,1492.5
2026-06-21 23:24:05.967,1498.9,1240.2,1464.2,1493.3
2026-06-21 23:24:05.968,1499.7,1241,1459.4,1493.3
2026-06-21 23:24:05.969,1498.9,1240.2,1456.2,1493.3
2026-06-21 23:24:05.970,1495.7,1240.2,1458.6,1493.3
2026-06-21 23:24:05.971,1499.7,1243.4,1463.4,1494.1
2026-06-21 23:24:05.972,1500.5,1240.2,1461.8,1494.9
2026-06-21 23:24:05.973,1501.3,1240.2,1464.2,1494.1
2026-06-21 23:24:05.974,1500.5,1240.2,1464.2,1494.1
2026-06-21 23:24:05.975,1502.1,1240.2,1462.6,1492.5
2026-06-21 23:24:05.976,1498.9,1238.6,1461,1494.1
2026-06-21 23:24:05.977,1499.7,1240.2,1457.8,1491.6
2026-06-21 23:24:05.978,1501.3,1240.2,1461,1493.3
2026-06-21 23:24:05.979,1498.1,1240.2,1462.6,1497.3
2026-06-21 23:24:05.980,1501.3,1239.4,1463.4,1494.1
2026-06-21 23:24:05.981,1500.5,1240.2,1460.2,1494.1
2026-06-21 23:24:05.982,1498.9,1238.6,1461,1494.1
2026-06-21 23:24:05.983,1501.3,1240.2,1460.2,1496.5
2026-06-21 23:24:05.984,1498.1,1240.2,1460.2,1493.3
2026-06-21 23:24:05.985,1501.3,1246.7,1461,1494.1
2026-06-21 23:24:05.986,1499.7,1245.9,1457.8,1493.3
2026-06-21 23:24:05.987,1499.7,1241.8,1461,1494.1
2026-06-21 23:24:05.988,1499.7,1244.2,1463.4,1493.3
2026-06-21 23:24:05.989,1498.9,1240.2,1465.1,1496.5
2026-06-21 23:24:05.990,1498.1,1240.2,1461.8,1492.5
2026-06-21 23:24:05.991,1498.9,1240.2,1456.2,1492.5
2026-06-21 23:24:05.992,1500.5,1240.2,1460.2,1494.1
2026-06-21 23:24:05.993,1499.7,1236.2,1461.8,1494.1
2026-06-21 23:24:05.994,1499.7,1240.2,1459.4,1495.7
2026-06-21 23:24:05.995,1501.3,1241.8,1461,1495.7
2026-06-21 23:24:05.996,1501.3,1241.8,1461,1494.1
2026-06-21 23:24:05.997,1502.1,1240.2,1464.2,1495.7
2026-06-21 23:24:05.998,1498.1,1239.4,1461.8,1494.1
2026-06-21 23:24:05.999,1501.3,1241,1462.6,1492.5
2026-06-21 23:24:06.011,1498.9,1237,1461,1494.1
2026-06-21 23:24:06.012,1497.3,1238.6,1460.2,1495.7
2026-06-21 23:24:06.013,1494.9,1238.6,1461.8,1494.1
2026-06-21 23:24:06.014,1494.9,1239.4,1463.4,1494.1
2026-06-21 23:24:06.015,1496.5,1240.2,1459.4,1494.1
2026-06-21 23:24:06.016,1498.9,1241,1463.4,1497.3
2026-06-21 23:24:06.017,1494.9,1240.2,1461,1498.9
2026-06-21 23:24:06.018,1494.9,1244.2,1461,1498.1
2026-06-21 23:24:06.019,1494.9,1240.2,1457,1498.9
2026-06-21 23:24:06.020,1494.9,1237.8,1464.2,1495.7
2026-06-21 23:24:06.021,1498.1,1238.6,1461,1493.3
2026-06-21 23:24:06.022,1497.3,1240.2,1460.2,1492.5
2026-06-21 23:24:06.023,1498.1,1241.8,1463.4,1492.5
2026-06-21 23:24:06.024,1498.1,1244.2,1459.4,1494.1
2026-06-21 23:24:06.025,1499.7,1243.4,1456.2,1494.1
2026-06-21 23:24:06.026,1498.9,1241.8,1459.4,1494.1
2026-06-21 23:24:06.027,1501.3,1241,1455.4,1492.5
2026-06-21 23:24:06.028,1500.5,1239.4,1456.2,1492.5
2026-06-21 23:24:06.029,1500.5,1240.2,1455.4,1494.1
2026-06-21 23:24:06.030,1498.9,1241.8,1459.4,1493.3
2026-06-21 23:24:06.031,1501.3,1243.4,1459.4,1495.7
2026-06-21 23:24:06.032,1498.9,1243.4,1464.2,1497.3
2026-06-21 23:24:06.033,1499.7,1243.4,1458.6,1494.1
2026-06-21 23:24:06.034,1499.7,1240.2,1460.2,1492.5
2026-06-21 23:24:06.035,1498.9,1240.2,1463.4,1494.1
2026-06-21 23:24:06.036,1499.7,1240.2,1462.6,1494.1
2026-06-21 23:24:06.037,1500.5,1240.2,1465.1,1494.1
2026-06-21 23:24:06.038,1500.5,1240.2,1461,1494.1
2026-06-21 23:24:06.039,1498.9,1241.8,1463.4,1494.1
2026-06-21 23:24:06.040,1499.7,1240.2,1461,1495.7
2026-06-21 23:24:06.041,1501.3,1240.2,1461,1495.7
2026-06-21 23:24:06.042,1498.1,1240.2,1461,1494.1
2026-06-21 23:24:06.043,1502.1,1241.8,1464.2,1493.3
2026-06-21 23:24:06.044,1501.3,1240.2,1461.8,1495.7
2026-06-21 23:24:06.045,1498.9,1238.6,1463.4,1494.1
2026-06-21 23:24:06.046,1501.3,1240.2,1462.6,1493.3
2026-06-21 23:24:06.047,1498.9,1240.2,1457.8,1494.1
2026-06-21 23:24:06.048,1501.3,1241,1459.4,1494.1
2026-06-21 23:24:06.049,1501.3,1240.2,1460.2,1494.1
2026-06-21 23:24:06.050,1498.1,1237.8,1460.2,1494.1
2026-06-21 23:24:06.051,1498.9,1237,1462.6,1494.1
2026-06-21 23:24:06.052,1501.3,1236.2,1464.2,1493.3
2026-06-21 23:24:06.053,1501.3,1233,1462.6,1494.1
2026-06-21 23:24:06.054,1499.7,1241.8,1458.6,1492.5
2026-06-21 23:24:06.055,1498.1,1247.5,1460.2,1492.5
2026-06-21 23:24:06.056,1500.5,1243.4,1461,1494.9
2026-06-21 23:24:06.057,1501.3,1238.6,1464.2,1494.1
2026-06-21 23:24:06.058,1501.3,1237,1471.5,1494.1
2026-06-21 23:24:06.059,1498.1,1238.6,1467.5,1494.1
2026-06-21 23:24:06.060,1500.5,1240.2,1465.1,1492.5
2026-06-21 23:24:06.054,1498.9,1238.6,1465.1,1494.9
2026-06-21 23:24:06.055,1492.5,1236.2,1452.2,1492.5
2026-06-21 23:24:06.056,1491.6,1234.6,1455.4,1492.5
2026-06-21 23:24:06.057,1494.9,1236.2,1460.2,1493.3
2026-06-21 23:24:06.058,1494.9,1240.2,1461,1495.7
2026-06-21 23:24:06.059,1494.9,1245.9,1461,1497.3
2026-06-21 23:24:06.060,1497.3,1246.7,1463.4,1496.5
2026-06-21 23:24:06.061,1497.3,1241.8,1461.8,1497.3
2026-06-21 23:24:06.062,1499.7,1240.2,1454.6,1494.1
2026-06-21 23:24:06.063,1496.5,1238.6,1450.5,1494.1
2026-06-21 23:24:06.064,1498.1,1239.4,1449.7,1492.5
2026-06-21 23:24:06.065,1497.3,1238.6,1444.1,1493.3
2026-06-21 23:24:06.066,1497.3,1237.8,1453,1494.1
2026-06-21 23:24:06.067,1496.5,1240.2,1457,1494.1
2026-06-21 23:24:06.068,1497.3,1247.5,1465.1,1492.5
2026-06-21 23:24:06.069,1498.9,1243.4,1473.9,1493.3
2026-06-21 23:24:06.070,1500.5,1241.8,1465.1,1492.5
2026-06-21 23:24:06.071,1500.5,1238.6,1465.1,1492.5
2026-06-21 23:24:06.072,1498.1,1240.2,1464.2,1492.5
2026-06-21 23:24:06.073,1501.3,1239.4,1463.4,1493.3
2026-06-21 23:24:06.074,1499.7,1239.4,1456.2,1494.1
2026-06-21 23:24:06.075,1501.3,1240.2,1456.2,1494.1
2026-06-21 23:24:06.076,1500.5,1238.6,1461,1496.5
2026-06-21 23:24:06.077,1500.5,1240.2,1455.4,1494.1
2026-06-21 23:24:06.078,1498.1,1240.2,1453.8,1492.5
2026-06-21 23:24:06.079,1501.3,1240.2,1456.2,1492.5
2026-06-21 23:24:06.080,1498.9,1239.4,1457.8,1492.5
2026-06-21 23:24:06.081,1500.5,1240.2,1459.4,1492.5
2026-06-21 23:24:06.082,1497.3,1241.8,1461.8,1492.5
2026-06-21 23:24:06.083,1498.1,1241,1464.2,1493.3
2026-06-21 23:24:06.084,1498.1,1240.2,1464.2,1494.1
2026-06-21 23:24:06.085,1499.7,1239.4,1462.6,1492.5
2026-06-21 23:24:06.086,1501.3,1240.2,1459.4,1494.1
2026-06-21 23:24:06.087,1501.3,1237.8,1455.4,1492.5
2026-06-21 23:24:06.088,1500.5,1240.2,1454.6,1492.5
2026-06-21 23:24:06.089,1500.5,1239.4,1458.6,1494.9
2026-06-21 23:24:06.090,1499.7,1241,1464.2,1494.1
2026-06-21 23:24:06.091,1500.5,1244.2,1465.1,1493.3
2026-06-21 23:24:06.092,1501.3,1244.2,1464.2,1494.9
2026-06-21 23:24:06.093,1501.3,1241,1457.8,1498.9
2026-06-21 23:24:06.094,1501.3,1239.4,1455.4,1495.7
2026-06-21 23:24:06.095,1498.9,1236.2,1461,1496.5
2026-06-21 23:24:06.096,1501.3,1240.2,1464.2,1498.9
2026-06-21 23:24:06.097,1500.5,1240.2,1461.8,1493.3
2026-06-21 23:24:06.098,1499.7,1240.2,1459.4,1491.6
2026-06-21 23:24:06.099,1502.1,1240.2,1461.8,1492.5
2026-06-21 23:24:06.100,1499.7,1240.2,1464.2,1493.3
2026-06-21 23:24:06.101,1500.5,1240.2,1464.2,1496.5
2026-06-21 23:24:06.102,1501.3,1237.8,1458.6,1494.1
2026-06-21 23:24:06.103,1498.9,1237,1456.2,1494.1
2026-06-21 23:24:06.111,1498.1,1240.2,1457.8,1496.5
2026-06-21 23:24:06.112,1496.5,1237.8,1459.4,1494.1
2026-06-21 23:24:06.113,1492.5,1238.6,1460.2,1494.9
2026-06-21 23:24:06.114,1491.6,1239.4,1463.4,1496.5
2026-06-21 23:24:06.115,1492.5,1240.2,1464.2,1494.1
2026-06-21 23:24:06.116,1494.9,1239.4,1461,1494.1
2026-06-21 23:24:06.117,1494.9,1240.2,1455.4,1493.3
2026-06-21 23:24:06.118,1494.9,1240.2,1465.1,1493.3
2026-06-21 23:24:06.119,1497.3,1242.6,1455.4,1494.1
2026-06-21 23:24:06.120,1496.5,1241,1456.2,1493.3
2026-06-21 23:24:06.121,1498.1,1240.2,1457,1494.1
2026-06-21 23:24:06.122,1498.1,1239.4,1457.8,1493.3
2026-06-21 23:24:06.123,1494.9,1237.8,1457.8,1496.5
2026-06-21 23:24:06.124,1498.9,1237.8,1459.4,1494.1
2026-06-21 23:24:06.125,1498.1,1236.2,1459.4,1492.5
2026-06-21 23:24:06.126,1498.1,1237.8,1460.2,1494.1
2026-06-21 23:24:06.127,1498.9,1234.6,1461.8,1492.5
2026-06-21 23:24:06.128,1500.5,1243.4,1463.4,1493.3
2026-06-21 23:24:06.129,1501.3,1243.4,1465.1,1492.5
2026-06-21 23:24:06.130,1494.9,1244.2,1463.4,1492.5
2026-06-21 23:24:06.131,1498.9,1240.2,1459.4,1492.5
2026-06-21 23:24:06.132,1498.9,1240.2,1460.2,1492.5
2026-06-21 23:24:06.133,1500.5,1241.8,1461,1493.3
2026-06-21 23:24:06.134,1499.7,1241.8,1455.4,1492.5
2026-06-21 23:24:06.135,1500.5,1240.2,1453,1492.5
2026-06-21 23:24:06.136,1499.7,1239.4,1457.8,1492.5
2026-06-21 23:24:06.137,1498.1,1236.2,1462.6,1492.5
2026-06-21 23:24:06.138,1501.3,1236.2,1465.1,1492.5
2026-06-21 23:24:06.139,1499.7,1240.2,1461,1494.1
2026-06-21 23:24:06.140,1498.9,1240.2,1457.8,1494.1
2026-06-21 23:24:06.141,1499.7,1240.2,1461,1492.5
2026-06-21 23:24:06.142,1497.3,1239.4,1461,1494.1
2026-06-21 23:24:06.143,1499.7,1240.2,1463.4,1494.1
2026-06-21 23:24:06.144,1499.7,1244.2,1464.2,1492.5
2026-06-21 23:24:06.145,1501.3,1240.2,1456.2,1492.5
2026-06-21 23:24:06.146,1500.5,1241.8,1456.2,1496.5
2026-06-21 23:24:06.147,1501.3,1244.2,1460.2,1493.3
2026-06-21 23:24:06.148,1498.9,1240.2,1461.8,1494.1
2026-06-21 23:24:06.149,1501.3,1241.8,1457.8,1496.5
2026-06-21 23:24:06.150,1500.5,1244.2,1464.2,1494.1
2026-06-21 23:24:06.151,1500.5,1240.2,1459.4,1494.1
2026-06-21 23:24:06.152,1498.9,1240.2,1457.8,1495.7
2026-06-21 23:24:06.153,1499.7,1236.2,1458.6,1494.1
2026-06-21 23:24:06.154,1501.3,1236.2,1459.4,1494.1
2026-06-21 23:24:06.155,1500.5,1236.2,1461.8,1494.1
2026-06-21 23:24:06.156,1499.7,1237.8,1463.4,1494.1
2026-06-21 23:24:06.157,1498.9,1236.2,1459.4,1492.5
2026-06-21 23:24:06.158,1501.3,1240.2,1459.4,1495.7
2026-06-21 23:24:06.159,1499.7,1240.2,1463.4,1494.1
2026-06-21 23:24:06.160,1498.1,1240.2,1463.4,1494.1
2026-06-21 23:24:06.149,1499.7,1240.2,1459.4,1494.1
2026-06-21 23:24:06.150,1496.5,1240.2,1460.2,1493.3
2026-06-21 23:24:06.151,1492.5,1240.2,1461,1498.9
2026-06-21 23:24:06.152,1492.5,1240.2,1465.1,1496.5
2026-06-21 23:24:06.153,1494.1,1240.2,1463.4,1494.1
2026-06-21 23:24:06.154,1497.3,1240.2,1461.8,1497.3
2026-06-21 23:24:06.155,1494.9,1240.2,1461.8,1492.5
2026-06-21 23:24:06.156,1498.1,1239.4,1465.1,1493.3
2026-06-21 23:24:06.157,1498.9,1237.8,1465.1,1493.3
2026-06-21 23:24:06.158,1498.9,1243.4,1453,1494.1
2026-06-21 23:24:06.159,1498.9,1240.2,1453,1493.3
2026-06-21 23:24:06.160,1497.3,1236.2,1460.2,1494.1
2026-06-21 23:24:06.161,1497.3,1238.6,1464.2,1494.1
2026-06-21 23:24:06.162,1494.9,1239.4,1463.4,1494.1
2026-06-21 23:24:06.163,1497.3,1244.2,1456.2,1498.9
2026-06-21 23:24:06.164,1498.1,1241,1453.8,1496.5
2026-06-21 23:24:06.165,1498.9,1240.2,1457.8,1492.5
2026-06-21 23:24:06.166,1499.7,1245.9,1455.4,1492.5
2026-06-21 23:24:06.167,1501.3,1241.8,1456.2,1492.5
2026-06-21 23:24:06.168,1497.3,1240.2,1456.2,1492.5
2026-06-21 23:24:06.169,1500.5,1240.2,1459.4,1492.5
2026-06-21 23:24:06.170,1501.3,1241.8,1456.2,1494.1
2026-06-21 23:24:06.171,1499.7,1240.2,1460.2,1492.5
2026-06-21 23:24:06.172,1500.5,1238.6,1458.6,1492.5
2026-06-21 23:24:06.173,1498.9,1236.2,1458.6,1492.5
2026-06-21 23:24:06.174,1496.5,1235.4,1458.6,1493.3
2026-06-21 23:24:06.175,1498.1,1233.8,1463.4,1491.6
2026-06-21 23:24:06.176,1498.9,1236.2,1462.6,1492.5
2026-06-21 23:24:06.177,1498.9,1239.4,1459.4,1494.1
2026-06-21 23:24:06.178,1498.9,1240.2,1463.4,1496.5
2026-06-21 23:24:06.179,1501.3,1245.9,1457,1492.5
2026-06-21 23:24:06.180,1500.5,1249.1,1457.8,1492.5
2026-06-21 23:24:06.181,1501.3,1247.5,1456.2,1492.5
2026-06-21 23:24:06.182,1501.3,1241.8,1460.2,1491.6
2026-06-21 23:24:06.183,1498.9,1237.8,1460.2,1494.1
2026-06-21 23:24:06.184,1500.5,1240.2,1463.4,1492.5
2026-06-21 23:24:06.185,1500.5,1241.8,1461,1493.3
2026-06-21 23:24:06.186,1498.9,1239.4,1462.6,1495.7
2026-06-21 23:24:06.187,1498.9,1240.2,1465.1,1499.7
2026-06-21 23:24:06.188,1501.3,1241.8,1465.1,1502.9
2026-06-21 23:24:06.189,1500.5,1240.2,1463.4,1502.9
2026-06-21 23:24:06.190,1500.5,1236.2,1464.2,1498.9
2026-06-21 23:24:06.191,1499.7,1236.2,1461,1493.3
2026-06-21 23:24:06.192,1500.5,1236.2,1465.1,1491.6
2026-06-21 23:24:06.193,1501.3,1240.2,1461,1492.5
2026-06-21 23:24:06.194,1499.7,1240.2,1461,1494.1
2026-06-21 23:24:06.195,1500.5,1239.4,1461,1492.5
2026-06-21 23:24:06.196,1501.3,1241.8,1461.8,1493.3
2026-06-21 23:24:06.197,1498.1,1240.2,1459.4,1493.3
2026-06-21 23:24:06.198,1498.9,1240.2,1458.6,1494.1
2026-06-21 23:24:06.210,1498.9,1241,1457.8,1497.3
2026-06-21 23:24:06.211,1498.9,1240.2,1459.4,1494.9
2026-06-21 23:24:06.212,1493.3,1238.6,1461,1492.5
2026-06-21 23:24:06.213,1492.5,1239.4,1456.2,1494.1
2026-06-21 23:24:06.214,1494.9,1236.2,1457.8,1492.5
2026-06-21 23:24:06.215,1494.9,1237.8,1461,1492.5
2026-06-21 23:24:06.216,1496.5,1238.6,1459.4,1494.1
2026-06-21 23:24:06.217,1498.1,1237,1459.4,1494.9
2026-06-21 23:24:06.218,1497.3,1240.2,1455.4,1494.1
2026-06-21 23:24:06.219,1498.9,1243.4,1458.6,1494.1
2026-06-21 23:24:06.220,1498.9,1240.2,1459.4,1496.5
2026-06-21 23:24:06.221,1498.1,1242.6,1458.6,1497.3
2026-06-21 23:24:06.222,1498.9,1244.2,1460.2,1493.3
2026-06-21 23:24:06.223,1501.3,1241.8,1461.8,1493.3
2026-06-21 23:24:06.224,1495.7,1240.2,1463.4,1494.1
2026-06-21 23:24:06.225,1501.3,1239.4,1465.1,1494.9
2026-06-21 23:24:06.226,1500.5,1240.2,1461.8,1490.8
2026-06-21 23:24:06.227,1500.5,1244.2,1455.4,1494.1
2026-06-21 23:24:06.228,1499.7,1244.2,1458.6,1494.1
2026-06-21 23:24:06.229,1501.3,1240.2,1455.4,1497.3
2026-06-21 23:24:06.230,1501.3,1241.8,1455.4,1494.1
2026-06-21 23:24:06.231,1498.9,1243.4,1456.2,1492.5
2026-06-21 23:24:06.232,1501.3,1244.2,1460.2,1492.5
2026-06-21 23:24:06.233,1501.3,1240.2,1460.2,1494.9
2026-06-21 23:24:06.234,1501.3,1241.8,1461.8,1494.1
2026-06-21 23:24:06.235,1500.5,1243.4,1460.2,1494.1
2026-06-21 23:24:06.236,1499.7,1243.4,1463.4,1493.3
2026-06-21 23:24:06.237,1501.3,1243.4,1461,1492.5
2026-06-21 23:24:06.238,1499.7,1243.4,1459.4,1492.5
2026-06-21 23:24:06.239,1499.7,1240.2,1458.6,1494.1
2026-06-21 23:24:06.240,1498.9,1240.2,1460.2,1492.5
2026-06-21 23:24:06.241,1501.3,1241,1461,1494.9
2026-06-21 23:24:06.242,1500.5,1237.8,1464.2,1492.5
2026-06-21 23:24:06.243,1501.3,1240.2,1461,1492.5
2026-06-21 23:24:06.244,1499.7,1238.6,1462.6,1494.1
2026-06-21 23:24:06.245,1499.7,1241.8,1457.8,1494.9
2026-06-21 23:24:06.246,1500.5,1240.2,1461.8,1493.3
2026-06-21 23:24:06.247,1501.3,1240.2,1460.2,1495.7
2026-06-21 23:24:06.248,1500.5,1238.6,1463.4,1494.1
2026-06-21 23:24:06.249,1501.3,1239.4,1459.4,1494.1
2026-06-21 23:24:06.250,1501.3,1241,1461,1493.3
2026-06-21 23:24:06.251,1499.7,1240.2,1462.6,1497.3
2026-06-21 23:24:06.252,1499.7,1239.4,1463.4,1493.3
2026-06-21 23:24:06.253,1500.5,1240.2,1467.5,1494.9
2026-06-21 23:24:06.254,1499.7,1240.2,1469.1,1496.5
2026-06-21 23:24:06.255,1501.3,1240.2,1466.7,1497.3
2026-06-21 23:24:06.256,1501.3,1240.2,1465.1,1493.3
2026-06-21 23:24:06.257,1500.5,1237,1458.6,1493.3
2026-06-21 23:24:06.258,1497.3,1237.8,1454.6,1494.1
2026-06-21 23:24:06.259,1498.9,1237.8,1453.8,1494.1
2026-06-21 23:24:06.250,1498.1,1239.4,1458.6,1494.1
2026-06-21 23:24:06.251,1492.5,1240.2,1455.4,1495.7
2026-06-21 23:24:06.252,1494.9,1240.2,1452.2,1494.1
2026-06-21 23:24:06.253,1493.3,1240.2,1450.5,1494.1
2026-06-21 23:24:06.254,1494.9,1239.4,1454.6,1498.9
2026-06-21 23:24:06.255,1494.9,1238.6,1460.2,1497.3
2026-06-21 23:24:06.256,1494.9,1238.6,1461,1497.3
2026-06-21 23:24:06.257,1494.9,1240.2,1462.6,1494.1
2026-06-21 23:24:06.258,1499.7,1243.4,1460.2,1493.3
2026-06-21 23:24:06.259,1499.7,1240.2,1461,1494.9
2026-06-21 23:24:06.260,1498.1,1240.2,1458.6,1494.1
2026-06-21 23:24:06.261,1494.9,1241.8,1459.4,1494.1
2026-06-21 23:24:06.262,1498.1,1240.2,1457.8,1493.3
2026-06-21 23:24:06.263,1496.5,1240.2,1456.2,1492.5
2026-06-21 23:24:06.264,1501.3,1240.2,1458.6,1495.7
2026-06-21 23:24:06.265,1501.3,1240.2,1456.2,1492.5
2026-06-21 23:24:06.266,1499.7,1240.2,1459.4,1492.5
2026-06-21 23:24:06.267,1502.1,1240.2,1460.2,1492.5
2026-06-21 23:24:06.268,1499.7,1238.6,1458.6,1493.3
2026-06-21 23:24:06.269,1500.5,1240.2,1459.4,1493.3
2026-06-21 23:24:06.270,1499.7,1240.2,1458.6,1492.5
2026-06-21 23:24:06.271,1500.5,1237.8,1461.8,1491.6
2026-06-21 23:24:06.272,1500.5,1236.2,1457.8,1492.5
2026-06-21 23:24:06.273,1498.9,1232.2,1458.6,1492.5
2026-06-21 23:24:06.274,1498.9,1233.8,1459.4,1493.3
2026-06-21 23:24:06.275,1498.9,1238.6,1463.4,1491.6
2026-06-21 23:24:06.276,1501.3,1238.6,1462.6,1493.3
2026-06-21 23:24:06.277,1498.9,1238.6,1465.1,1492.5
2026-06-21 23:24:06.278,1502.1,1240.2,1465.1,1492.5
2026-06-21 23:24:06.279,1498.9,1247.5,1465.1,1492.5
2026-06-21 23:24:06.280,1499.7,1242.6,1465.1,1494.1
2026-06-21 23:24:06.281,1498.9,1243.4,1465.1,1498.9
2026-06-21 23:24:06.282,1499.7,1240.2,1461,1495.7
2026-06-21 23:24:06.283,1500.5,1236.2,1459.4,1495.7
2026-06-21 23:24:06.284,1502.1,1240.2,1460.2,1496.5
2026-06-21 23:24:06.285,1502.1,1242.6,1453.8,1496.5
2026-06-21 23:24:06.286,1501.3,1240.2,1448.9,1492.5
2026-06-21 23:24:06.287,1500.5,1240.2,1456.2,1492.5
2026-06-21 23:24:06.288,1498.9,1233.8,1457.8,1493.3
2026-06-21 23:24:06.289,1501.3,1236.2,1459.4,1496.5
2026-06-21 23:24:06.290,1500.5,1240.2,1457.8,1494.1
2026-06-21 23:24:06.291,1499.7,1240.2,1459.4,1492.5
2026-06-21 23:24:06.292,1501.3,1240.2,1458.6,1494.1
2026-06-21 23:24:06.293,1501.3,1240.2,1459.4,1494.1
2026-06-21 23:24:06.294,1499.7,1238.6,1461.8,1496.5
2026-06-21 23:24:06.295,1500.5,1237.8,1460.2,1495.7
2026-06-21 23:24:06.296,1501.3,1237.8,1461,1494.9
2026-06-21 23:24:06.297,1501.3,1237.8,1461,1493.3
2026-06-21 23:24:06.298,1501.3,1238.6,1460.2,1496.5
2026-06-21 23:24:06.299,1499.7,1241.8,1459.4,1494.1
2026-06-21 23:24:06.309,1497.3,1244.2,1461,1494.1
2026-06-21 23:24:06.310,1492.5,1239.4,1463.4,1494.1
2026-06-21 23:24:06.311,1494.9,1234.6,1465.1,1497.3
2026-06-21 23:24:06.312,1494.9,1239.4,1464.2,1493.3
2026-06-21 23:24:06.313,1494.9,1236.2,1469.1,1492.5
2026-06-21 23:24:06.314,1495.7,1241.8,1468.3,1494.1
2026-06-21 23:24:06.315,1494.9,1240.2,1465.1,1494.1
2026-06-21 23:24:06.316,1496.5,1240.2,1468.3,1497.3
2026-06-21 23:24:06.317,1494.9,1241.8,1455.4,1500.5
2026-06-21 23:24:06.318,1498.9,1240.2,1453,1492.5
2026-06-21 23:24:06.319,1498.9,1240.2,1455.4,1494.1
2026-06-21 23:24:06.320,1498.9,1240.2,1453,1495.7
2026-06-21 23:24:06.321,1494.9,1239.4,1456.2,1494.9
2026-06-21 23:24:06.322,1497.3,1240.2,1453,1493.3
2026-06-21 23:24:06.323,1501.3,1244.2,1455.4,1494.1
2026-06-21 23:24:06.324,1498.9,1240.2,1455.4,1490.8
2026-06-21 23:24:06.325,1498.9,1243.4,1459.4,1491.6
2026-06-21 23:24:06.326,1499.7,1241.8,1457.8,1490.8
2026-06-21 23:24:06.327,1498.9,1240.2,1456.2,1491.6
2026-06-21 23:24:06.328,1499.7,1236.2,1461,1492.5
2026-06-21 23:24:06.329,1499.7,1237.8,1458.6,1492.5
2026-06-21 23:24:06.330,1501.3,1239.4,1462.6,1492.5
2026-06-21 23:24:06.331,1499.7,1240.2,1459.4,1494.1
2026-06-21 23:24:06.332,1498.9,1233,1461,1492.5
2026-06-21 23:24:06.333,1497.3,1240.2,1459.4,1492.5
2026-06-21 23:24:06.334,1498.9,1243.4,1461.8,1491.6
2026-06-21 23:24:06.335,1500.5,1247.5,1465.1,1492.5
2026-06-21 23:24:06.336,1501.3,1241,1460.2,1490.8
2026-06-21 23:24:06.337,1499.7,1240.2,1457,1493.3
2026-06-21 23:24:06.338,1499.7,1241,1457,1494.9
2026-06-21 23:24:06.339,1498.9,1240.2,1456.2,1494.9
2026-06-21 23:24:06.340,1498.9,1238.6,1455.4,1496.5
2026-06-21 23:24:06.341,1499.7,1240.2,1461,1494.1
2026-06-21 23:24:06.342,1500.5,1240.2,1463.4,1496.5
2026-06-21 23:24:06.343,1501.3,1237.8,1466.7,1495.7
2026-06-21 23:24:06.344,1498.9,1241,1469.1,1495.7
2026-06-21 23:24:06.345,1501.3,1240.2,1465.9,1496.5
2026-06-21 23:24:06.346,1498.9,1240.2,1457.8,1494.1
2026-06-21 23:24:06.347,1498.9,1240.2,1457,1495.7
2026-06-21 23:24:06.348,1498.9,1240.2,1457,1494.1
2026-06-21 23:24:06.349,1500.5,1243.4,1462.6,1493.3
2026-06-21 23:24:06.350,1499.7,1240.2,1464.2,1492.5
2026-06-21 23:24:06.351,1501.3,1240.2,1463.4,1494.1
2026-06-21 23:24:06.352,1499.7,1239.4,1462.6,1493.3
2026-06-21 23:24:06.353,1501.3,1237.8,1462.6,1492.5
2026-06-21 23:24:06.354,1501.3,1235.4,1459.4,1494.1
2026-06-21 23:24:06.355,1501.3,1237.8,1457.8,1495.7
2026-06-21 23:24:06.356,1498.9,1239.4,1462.6,1492.5
2026-06-21 23:24:06.357,1498.9,1238.6,1464.2,1498.9
2026-06-21 23:24:06.358,1501.3,1239.4,1464.2,1494.1
2026-06-21 23:24:06.359,1498.9,1240.2,1463.4,1494.1
2026-06-21 23:24:06.360,1491.6,1239.4,1461,1496.5
2026-06-21 23:24:06.361,1494.9,1240.2,1457.8,1495.7
2026-06-21 23:24:06.362,1494.9,1240.2,1461.8,1496.5
2026-06-21 23:24:06.363,1494.9,1240.2,1465.1,1494.1
2026-06-21 23:24:06.364,1496.5,1240.2,1461.8,1495.7
2026-06-21 23:24:06.365,1498.9,1240.2,1459.4,1494.1
2026-06-21 23:24:06.366,1497.3,1240.2,1464.2,1493.3
2026-06-21 23:24:06.367,1498.1,1240.2,1464.2,1494.1
2026-06-21 23:24:06.368,1498.1,1237.8,1454.6,1494.1
2026-06-21 23:24:06.369,1499.7,1239.4,1451.4,1495.7
2026-06-21 23:24:06.370,1497.3,1239.4,1456.2,1494.1
2026-06-21 23:24:06.371,1501.3,1237.8,1460.2,1496.5
2026-06-21 23:24:06.372,1498.9,1240.2,1459.4,1497.3
2026-06-21 23:24:06.373,1499.7,1244.2,1453.8,1497.3
2026-06-21 23:24:06.374,1498.9,1242.6,1455.4,1492.5
2026-06-21 23:24:06.375,1499.7,1239.4,1459.4,1492.5
2026-06-21 23:24:06.376,1498.9,1240.2,1463.4,1492.5
2026-06-21 23:24:06.377,1500.5,1237.8,1464.2,1492.5
2026-06-21 23:24:06.378,1499.7,1239.4,1463.4,1492.5
2026-06-21 23:24:06.379,1498.9,1237,1461,1492.5
2026-06-21 23:24:06.380,1499.7,1240.2,1464.2,1494.1
2026-06-21 23:24:06.381,1500.5,1244.2,1461,1493.3
2026-06-21 23:24:06.382,1499.7,1238.6,1464.2,1492.5
2026-06-21 23:24:06.383,1501.3,1240.2,1460.2,1493.3
2026-06-21 23:24:06.384,1498.9,1233,1463.4,1494.1
2026-06-21 23:24:06.385,1498.9,1231.4,1461,1493.3
2026-06-21 23:24:06.386,1501.3,1231.4,1455.4,1492.5
2026-06-21 23:24:06.387,1501.3,1241.8,1458.6,1491.6
2026-06-21 23:24:06.388,1501.3,1251.5,1461.8,1493.3
2026-06-21 23:24:06.389,1500.5,1253.9,1461.8,1494.1
2026-06-21 23:24:06.390,1501.3,1240.2,1459.4,1494.1
2026-06-21 23:24:06.391,1501.3,1240.2,1459.4,1493.3
2026-06-21 23:24:06.392,1499.7,1244.2,1463.4,1498.9
2026-06-21 23:24:06.393,1501.3,1244.2,1461.8,1494.1
2026-06-21 23:24:06.394,1502.1,1241.8,1459.4,1493.3
2026-06-21 23:24:06.395,1501.3,1240.2,1461,1494.9
2026-06-21 23:24:06.396,1499.7,1241,1465.1,1492.5
2026-06-21 23:24:06.397,1501.3,1240.2,1465.1,1492.5
2026-06-21 23:24:06.398,1498.9,1241.8,1462.6,1495.7
2026-06-21 23:24:06.399,1498.9,1238.6,1461.8,1492.5
2026-06-21 23:24:06.400,1501.3,1240.2,1458.6,1492.5
2026-06-21 23:24:06.401,1501.3,1236.2,1459.4,1494.1
2026-06-21 23:24:06.402,1500.5,1237.8,1461,1494.1
2026-06-21 23:24:06.403,1500.5,1236.2,1463.4,1495.7
2026-06-21 23:24:06.404,1501.3,1231.4,1461,1494.1
2026-06-21 23:24:06.405,1501.3,1235.4,1462.6,1494.1
